date,tavg,tmin,tmax,prcp,snow,wdir,wspd,wpgt,pres,tsun
2021-01-01,9.4,1.5,10.3,,,,1.4,,1023.2,
2021-01-02,9.3,4.2,9.3,,,,1.4,,1025.2,
2021-01-03,8.5,3.1,10.8,,,,1.1,,1024.9,
2021-01-04,8.0,1.4,9.8,,,,0.8,,1024.4,
2021-01-05,7.9,1.0,8.9,,,,1.5,,1025.5,
2021-01-06,7.1,2.2,9.8,,,,1.1,,1026.9,
2021-01-07,7.9,0.8,9.7,,,,0.6,,1026.0,
2021-01-08,8.6,0.9,9.0,,,,0.7,,1025.6,
2021-01-09,8.4,1.4,9.7,,,,0.9,,1025.0,
2021-01-10,8.6,1.7,9.8,,,,0.6,,1025.7,
2021-01-11,9.5,3.0,10.9,,,,0.9,,1026.2,
2021-01-12,11.0,5.1,12.7,,,,1.0,,1024.7,
2021-01-13,11.4,7.4,11.7,,,,3.8,,1015.1,
2021-01-14,6.7,4.6,7.9,,,51.0,2.6,,1006.0,
2021-01-15,7.1,1.9,7.4,,,,2.6,,1011.4,
2021-01-16,8.3,4.4,6.5,,,,2.1,,1013.2,
2021-01-17,7.7,4.2,6.6,,,,2.7,,1006.0,
2021-01-18,5.9,1.2,4.8,,,313.0,3.1,,1011.6,
2021-01-19,0.7,-4.3,2.5,,,24.0,2.8,,1016.6,
2021-01-20,0.8,-8.4,-2.8,,,12.0,4.6,,1020.2,
2021-01-21,1.4,-9.8,-2.5,,,7.0,2.7,,1031.6,
2021-01-22,1.9,-7.0,-0.5,,,,1.4,,1033.3,
2021-01-23,2.6,-6.2,1.9,,,,1.3,,1028.8,
2021-01-24,2.9,-5.8,3.5,,,,2.1,,1026.6,
2021-01-25,4.1,-4.9,4.1,,,,1.7,,1025.7,
2021-01-26,5.9,-2.0,5.9,,,,1.4,,1025.6,
2021-01-27,8.9,-0.2,6.4,,,,4.4,,1019.6,
2021-01-28,5.9,3.4,6.0,,,,4.1,,1013.2,
2021-01-29,2.1,-1.3,3.4,,,,2.2,,1012.5,
2021-01-30,3.8,-4.6,3.1,,,,2.6,,1017.3,
2021-01-31,5.6,2.2,6.3,,,86.0,2.6,,1017.0,
2021-02-01,6.8,0.5,7.3,,,,1.8,,1028.3,
2021-02-02,8.5,1.4,10.0,,,,2.1,,1027.4,
2021-02-03,8.8,2.2,10.1,,,,1.8,,1023.2,
2021-02-04,9.4,4.5,11.2,,,,1.7,,1020.1,
2021-02-05,8.9,3.4,11.6,,,,1.7,,1018.9,
2021-02-06,8.9,0.8,10.6,,,,1.7,,1021.1,
2021-02-07,11.1,1.1,11.1,,,,2.2,,1021.0,
2021-02-08,11.7,3.1,11.1,,,,2.0,,1024.1,
2021-02-09,13.1,5.3,13.8,,,,2.1,,1024.7,
2021-02-10,10.6,4.6,12.9,,,,2.1,,1021.5,
2021-02-11,7.2,2.9,12.6,,,,1.4,,1021.3,
2021-02-12,7.0,2.3,12.5,,,,2.0,,1017.4,
2021-02-13,11.8,4.1,11.3,,,,1.6,,1018.2,
2021-02-14,11.3,4.0,13.7,,,,2.4,,1019.5,
2021-02-15,10.8,4.2,12.3,,,,2.0,,1014.4,
2021-02-16,8.1,4.8,8.4,,,,2.1,,1006.4,
2021-02-17,3.3,-1.3,4.7,,,350.0,4.4,,1003.0,
2021-02-18,2.1,-5.7,0.7,,,3.0,4.1,,1015.9,
2021-02-19,1.5,-6.6,1.0,,,,2.2,,1023.7,
2021-02-20,-2.4,-5.6,1.3,,,,3.4,,1027.1,
2021-02-21,-0.2,-7.7,2.5,,,,2.4,,1029.7,
2021-02-22,3.8,-6.3,5.4,,,,2.2,,1029.9,
2021-02-23,7.2,-4.3,9.3,,,,2.6,,1027.3,
2021-02-24,9.6,-1.1,10.8,,,20.0,4.3,,1022.1,
2021-02-25,9.1,0.5,10.6,,,16.0,3.5,,1022.9,
2021-02-26,8.6,-1.0,11.2,,,,2.4,,1023.9,
2021-02-27,8.9,-0.1,12.9,,,,1.5,,1020.2,
2021-02-28,11.4,0.8,13.4,,,,1.6,,1017.1,
2021-03-01,9.8,2.6,9.8,,,,2.8,,1017.9,
2021-03-02,8.6,-1.0,10.2,,,,2.4,,1022.5,
2021-03-03,8.9,4.2,11.9,,,48.0,2.1,,1020.5,
2021-03-04,10.7,2.6,12.5,,,,2.8,,1017.8,
2021-03-05,12.1,-0.5,13.5,,,,3.4,,1019.2,
2021-03-06,11.6,0.8,13.8,,,,2.2,,1023.6,
2021-03-07,11.5,4.4,13.7,,,,2.1,,1017.9,
2021-03-08,11.4,4.4,12.9,,,,2.9,,1014.0,
2021-03-09,10.8,1.6,12.8,,,,2.1,,1016.6,
2021-03-10,11.3,3.0,15.8,,,,2.0,,1016.5,
2021-03-11,10.1,6.2,14.0,,,,2.8,,1006.5,
2021-03-12,7.3,-1.3,6.9,,,338.0,8.2,,1007.6,
2021-03-13,8.0,-2.5,13.5,,,21.0,2.7,,1018.4,
2021-03-14,10.9,2.2,14.9,,,,1.4,,1018.0,
2021-03-15,9.3,5.1,9.2,,,,1.8,,1014.5,
2021-03-16,10.3,4.4,9.1,,,,3.7,,1011.1,
2021-03-17,9.4,2.3,8.5,,,199.0,4.3,,1009.9,
2021-03-18,4.9,2.1,7.8,,,311.0,3.2,,1011.3,
2021-03-19,6.6,1.3,12.5,,,295.0,2.9,,1016.4,
2021-03-20,7.6,2.1,12.2,,,64.0,1.6,,1018.6,
2021-03-21,9.9,3.6,16.9,,,69.0,1.6,,1014.4,
2021-03-22,9.9,5.6,14.0,,,81.0,2.8,,1011.2,
2021-03-23,8.9,6.8,10.6,,,102.0,4.1,,1006.8,
2021-03-24,6.3,2.5,8.4,,,226.0,6.3,,999.6,
2021-03-25,4.6,1.8,7.5,,,283.0,5.6,,1007.9,
2021-03-26,2.2,-0.9,4.2,,,354.0,3.1,,1016.1,
2021-03-27,2.6,-2.7,7.6,,,315.0,5.2,,1021.9,
2021-03-28,4.8,-2.1,11.9,,,5.0,2.7,,1027.3,
2021-03-29,6.7,-0.6,14.2,,,13.0,2.1,,1024.2,
2021-03-30,8.4,1.2,15.4,,,,2.0,,1018.8,
2021-03-31,11.1,5.8,17.6,,,85.0,3.1,,1013.6,
2021-04-01,8.3,4.4,11.3,,,298.0,3.8,,1012.7,
2021-04-02,5.7,3.1,9.6,,,315.0,2.4,,1015.6,
2021-04-03,7.7,1.6,14.4,,,290.0,3.2,,1017.3,
2021-04-04,9.6,4.1,15.7,,,272.0,4.0,,1020.4,
2021-04-05,10.6,5.8,16.0,,,285.0,3.0,,1020.4,
2021-04-06,13.7,6.8,21.8,,,122.0,3.2,,1017.7,
2021-04-07,16.1,9.1,23.5,,,105.0,3.7,,1015.1,
2021-04-08,15.5,9.5,22.8,,,237.0,3.2,,1013.0,
2021-04-09,11.2,6.4,16.3,,,282.0,3.8,,1010.2,
2021-04-10,7.9,3.6,11.7,,,333.0,3.4,,1008.5,
2021-04-11,5.1,3.1,7.2,,,31.0,2.8,,1013.6,
2021-04-12,5.2,2.8,8.0,,,8.0,1.8,,1019.4,
2021-04-13,6.7,1.6,11.7,,,321.0,2.3,,1019.6,
2021-04-14,8.9,1.0,16.5,,,319.0,1.8,,1020.4,
2021-04-15,11.7,5.5,18.0,,,,1.6,,1018.8,
2021-04-16,14.1,6.3,21.8,,,,1.9,,1017.7,
2021-04-17,16.5,8.6,24.4,,,32.0,1.8,,1017.8,
2021-04-18,18.4,11.8,25.7,,,6.0,2.2,,1017.6,
2021-04-19,20.3,14.2,27.3,,,49.0,2.4,,1015.5,
2021-04-20,20.2,15.4,26.8,,,152.0,3.8,,1011.0,
2021-04-21,16.5,11.0,22.8,,,261.0,4.7,,1013.0,
2021-04-22,13.6,5.9,20.7,,,277.0,3.9,,1016.0,
2021-04-23,15.6,6.3,24.4,,,344.0,2.4,,1018.3,
2021-04-24,18.7,8.7,27.6,,,60.0,2.1,,1014.1,
2021-04-25,20.5,13.8,27.8,,,96.0,3.1,,1009.0,
2021-04-26,18.9,13.3,25.2,,,324.0,3.5,,1004.3,
2021-04-27,16.8,9.0,24.7,,,302.0,5.2,,1008.3,
2021-04-28,18.2,8.9,26.8,,,288.0,3.3,,1013.4,
2021-04-29,19.2,11.9,26.6,,,295.0,3.2,,1015.4,
2021-04-30,18.1,13.3,24.0,,,315.0,3.6,,1014.1,
2021-05-01,18.6,10.5,26.2,,,329.0,4.7,,1013.1,
2021-05-02,19.5,10.8,27.6,,,311.0,5.5,,1012.0,
2021-05-03,21.4,13.7,29.7,,,302.0,3.6,,1010.2,
2021-05-04,20.6,14.8,27.4,,,294.0,3.8,,1008.1,
2021-05-05,19.9,13.7,26.5,,,320.0,3.1,,1007.3,
2021-05-06,18.1,12.6,23.5,,,294.0,3.3,,1008.7,
2021-05-07,18.7,10.9,26.6,,,319.0,4.8,,1010.8,
2021-05-08,19.4,10.5,28.1,,,312.0,2.5,,1013.1,
2021-05-09,20.0,13.6,27.1,,,309.0,5.0,,1009.3,
2021-05-10,16.9,7.8,24.7,,,53.0,6.6,,1011.0,
2021-05-11,17.3,7.5,25.3,,,328.0,3.2,,1009.0,
2021-05-12,19.3,9.8,28.4,,,328.0,2.3,,1008.5,
2021-05-13,19.9,10.3,29.0,,,304.0,2.4,,1009.6,
2021-05-14,20.0,10.1,29.1,,,295.0,2.6,,1011.6,
2021-05-15,21.4,12.0,30.5,,,283.0,2.8,,1009.2,
2021-05-16,20.0,12.9,27.4,,,288.0,3.5,,1006.5,
2021-05-17,18.0,11.6,24.2,,,267.0,4.1,,1007.2,
2021-05-18,19.5,11.2,27.4,,,280.0,3.0,,1010.1,
2021-05-19,21.8,13.5,30.2,,,285.0,3.1,,1010.0,
2021-05-20,23.4,12.9,33.1,,,304.0,2.4,,1009.6,
2021-05-21,23.2,14.2,32.2,,,266.0,3.1,,1007.7,
2021-05-22,18.7,12.1,24.2,,,274.0,6.1,,1006.3,
2021-05-23,16.6,10.7,22.3,,,320.0,7.5,,1007.3,
2021-05-24,20.1,12.3,27.8,,,21.0,6.8,,1009.1,
2021-05-25,22.6,14.5,30.5,,,345.0,6.4,,1009.5,
2021-05-26,22.7,12.4,32.1,,,323.0,4.2,,1008.1,
2021-05-27,23.5,15.1,31.6,,,274.0,3.8,,1006.8,
2021-05-28,21.9,15.4,28.7,,,287.0,4.7,,1005.9,
2021-05-29,19.2,14.2,23.7,,,288.0,5.1,,1007.2,
2021-05-30,20.3,12.6,27.8,,,295.0,3.4,,1010.6,
2021-05-31,21.5,13.3,29.4,,,279.0,3.0,,1008.7,
2021-06-01,19.1,14.1,24.0,,,278.0,5.8,,1006.8,
2021-06-02,16.7,12.3,21.2,,,280.0,5.4,,1010.4,
2021-06-03,17.7,9.9,24.7,,,298.0,4.1,,1012.8,
2021-06-04,19.3,11.7,26.2,,,305.0,4.2,,1011.9,
2021-06-05,19.1,11.5,25.8,,,326.0,4.7,,1009.8,
2021-06-06,19.1,12.0,25.3,,,321.0,5.0,,1009.6,
2021-06-07,20.0,11.3,27.6,,,322.0,4.5,,1011.5,
2021-06-08,21.0,13.7,28.1,,,309.0,4.3,,1009.7,
2021-06-09,20.2,15.0,25.7,,,299.0,5.9,,1007.8,
2021-06-10,19.5,13.6,25.4,,,282.0,4.7,,1006.7,
2021-06-11,19.6,13.9,25.0,,,297.0,5.7,,1007.3,
2021-06-12,19.7,14.4,25.1,,,307.0,6.8,,1008.0,
2021-06-13,20.9,13.9,27.3,,,302.0,4.9,,1008.3,
2021-06-14,20.7,14.1,26.5,,,272.0,4.8,,1007.1,
2021-06-15,20.0,12.6,26.5,,,292.0,6.0,,1007.4,
2021-06-16,18.8,13.3,24.1,,,289.0,6.9,,1007.2,
2021-06-17,19.1,11.7,25.8,,,303.0,6.7,,1010.7,
2021-06-18,21.5,12.8,28.8,,,315.0,6.0,,1008.9,
2021-06-19,22.6,14.4,29.8,,,304.0,6.8,,1005.1,
2021-06-20,23.9,16.3,31.3,,,283.0,5.2,,1005.0,
2021-06-21,22.4,15.6,28.4,,,284.0,4.5,,1007.6,
2021-06-22,21.4,14.6,27.5,,,272.0,4.1,,1009.1,
2021-06-23,22.5,15.9,28.3,,,293.0,5.2,,1008.5,
2021-06-24,23.8,16.4,30.3,,,321.0,4.5,,1007.0,
2021-06-25,24.4,17.4,30.7,,,318.0,3.9,,1005.4,
2021-06-26,24.6,17.5,30.9,,,329.0,4.5,,1003.5,
2021-06-27,25.5,17.5,33.1,,,346.0,4.5,,1003.3,
2021-06-28,26.5,18.3,33.8,,,356.0,4.4,,1004.2,
2021-06-29,26.4,18.6,33.6,,,346.0,5.3,,1004.0,
2021-06-30,27.4,18.4,35.4,,,31.0,3.8,,1005.0,
2021-07-01,28.0,19.2,36.4,,,316.0,4.3,,1004.5,
2021-07-02,27.5,18.6,35.2,,,316.0,5.9,,1003.6,
2021-07-03,26.1,19.0,33.9,,,277.0,5.9,,1002.3,
2021-07-04,22.7,17.5,27.6,,,316.0,7.1,,1001.5,
2021-07-05,22.8,15.1,29.4,,,318.0,5.2,,1003.3,
2021-07-06,22.7,16.6,28.4,,,320.0,5.5,,1002.7,
2021-07-07,24.7,16.8,31.9,,,329.0,4.4,,1003.9,
2021-07-08,26.5,17.8,34.1,,,344.0,3.9,,1005.3,
2021-07-09,26.7,19.1,34.1,,,338.0,4.9,,1003.2,
2021-07-10,26.2,18.6,32.7,,,327.0,5.6,,999.9,
2021-07-11,26.1,18.5,32.2,,,323.0,5.3,,1000.1,
2021-07-12,26.7,19.1,33.7,,,315.0,5.0,,1002.6,
2021-07-13,27.3,18.6,34.8,,,340.0,6.1,,1002.3,
2021-07-14,26.2,18.2,33.6,,,342.0,7.6,,1000.7,
2021-07-15,25.8,17.5,32.8,,,357.0,7.9,,999.4,
2021-07-16,27.2,18.8,34.8,,,29.0,4.3,,1000.7,
2021-07-17,28.5,20.5,36.3,,,302.0,3.4,,1001.8,
2021-07-18,28.8,20.6,36.7,,,283.0,3.7,,1002.1,
2021-07-19,28.4,19.3,37.0,,,270.0,4.2,,1003.9,
2021-07-20,27.9,19.3,36.3,,,291.0,6.2,,1003.9,
2021-07-21,27.3,20.0,35.6,,,304.0,7.6,,1001.7,
2021-07-22,26.9,19.8,34.1,,,320.0,8.2,,999.7,
2021-07-23,25.4,18.5,31.1,,,338.0,6.8,,999.5,
2021-07-24,24.8,16.8,31.4,,,336.0,5.9,,1000.4,
2021-07-25,25.8,17.3,33.2,,,316.0,3.5,,1003.3,
2021-07-26,26.4,18.4,33.5,,,280.0,4.2,,1005.9,
2021-07-27,25.9,18.5,32.9,,,351.0,6.6,,1005.5,
2021-07-28,25.6,18.3,32.3,,,8.0,9.3,,1003.1,
2021-07-29,26.2,16.6,34.9,,,8.0,7.8,,1001.0,
2021-07-30,27.1,17.8,35.6,,,357.0,4.8,,999.7,
2021-07-31,27.9,19.0,35.8,,,335.0,5.2,,999.5,
2021-08-01,27.9,18.9,36.2,,,342.0,4.7,,1000.8,
2021-08-02,28.4,19.5,36.5,,,16.0,3.9,,1000.9,
2021-08-03,28.7,20.1,36.4,,,356.0,4.3,,1002.6,
2021-08-04,29.4,20.3,37.9,,,291.0,4.1,,1004.5,
2021-08-05,29.0,19.9,37.7,,,309.0,3.9,,1003.8,
2021-08-06,27.4,21.1,34.6,,,305.0,3.8,,1002.0,
2021-08-07,25.6,20.2,31.9,,,297.0,3.7,,1002.1,
2021-08-08,23.5,18.3,29.2,,,235.0,3.3,,1004.3,
2021-08-09,23.9,18.3,29.8,,,327.0,4.5,,1006.0,
2021-08-10,23.3,17.8,29.1,,,339.0,4.8,,1005.3,
2021-08-11,23.2,17.8,28.6,,,339.0,4.0,,1004.2,
2021-08-12,24.1,18.2,30.3,,,357.0,3.1,,1005.7,
2021-08-13,24.0,17.5,30.5,,,15.0,3.6,,1007.3,
2021-08-14,24.3,18.0,30.5,,,353.0,5.5,,1005.8,
2021-08-15,24.4,16.5,31.8,,,333.0,4.9,,1004.7,
2021-08-16,24.4,16.1,32.1,,,332.0,5.4,,1004.7,
2021-08-17,25.0,15.8,33.4,,,316.0,5.6,,1004.7,
2021-08-18,25.4,16.9,33.8,,,302.0,5.0,,1002.6,
2021-08-19,25.8,17.6,33.6,,,326.0,5.8,,1000.5,
2021-08-20,26.0,16.7,34.1,,,351.0,5.2,,1003.0,
2021-08-21,26.6,17.2,35.0,,,307.0,3.4,,1004.9,
2021-08-22,26.8,17.7,35.3,,,288.0,3.2,,1005.2,
2021-08-23,26.6,18.0,35.6,,,261.0,4.1,,1003.7,
2021-08-24,26.5,18.6,33.9,,,296.0,4.7,,1003.6,
2021-08-25,26.3,19.1,33.3,,,275.0,3.8,,1005.8,
2021-08-26,27.0,18.8,35.0,,,280.0,3.5,,1006.9,
2021-08-27,27.8,18.3,36.9,,,267.0,3.2,,1007.1,
2021-08-28,28.4,19.1,38.1,,,253.0,3.8,,1005.6,
2021-08-29,27.4,19.2,36.5,,,274.0,4.1,,1003.4,
2021-08-30,24.8,17.2,32.4,,,269.0,5.0,,1005.2,
2021-08-31,25.2,17.2,33.5,,,253.0,3.8,,1007.4,
2021-09-01,24.8,17.0,32.5,,,247.0,3.8,,1007.1,
2021-09-02,23.4,17.2,30.3,,,307.0,5.6,,1005.1,
2021-09-03,21.9,14.8,28.3,,,2.0,6.7,,1006.0,
2021-09-04,21.0,11.8,29.5,,,332.0,4.2,,1007.0,
2021-09-05,21.8,12.6,30.2,,,275.0,3.2,,1006.6,
2021-09-06,22.2,13.9,30.1,,,284.0,3.2,,1007.3,
2021-09-07,23.0,14.6,31.2,,,305.0,2.7,,1009.6,
2021-09-08,23.3,15.1,32.4,,,288.0,3.5,,1010.5,
2021-09-09,23.7,15.8,32.2,,,283.0,4.8,,1008.9,
2021-09-10,22.8,16.4,30.1,,,288.0,5.4,,1008.4,
2021-09-11,21.7,15.6,28.5,,,294.0,5.9,,1006.9,
2021-09-12,21.7,14.2,29.4,,,281.0,4.1,,1006.5,
2021-09-13,21.6,15.0,28.6,,,283.0,4.7,,1006.3,
2021-09-14,21.4,14.2,29.2,,,279.0,2.9,,1007.7,
2021-09-15,20.1,14.1,26.7,,,267.0,3.5,,1009.1,
2021-09-16,18.7,13.5,25.0,,,288.0,3.8,,1009.3,
2021-09-17,18.9,12.4,26.0,,,309.0,2.7,,1008.5,
2021-09-18,20.3,12.5,28.7,,,300.0,2.7,,1010.2,
2021-09-19,20.9,12.5,29.7,,,295.0,3.1,,1011.5,
2021-09-20,21.3,13.7,29.4,,,302.0,3.8,,1012.2,
2021-09-21,21.8,13.1,31.1,,,296.0,3.2,,1011.8,
2021-09-22,20.6,13.8,28.4,,,290.0,4.1,,1006.7,
2021-09-23,17.7,12.5,24.4,,,308.0,3.2,,1003.7,
2021-09-24,16.2,11.1,22.1,,,337.0,4.3,,1007.3,
2021-09-25,15.6,6.8,24.4,,,300.0,2.8,,1014.8,
2021-09-26,17.2,7.8,27.5,,,321.0,2.1,,1016.7,
2021-09-27,18.8,8.8,29.6,,,290.0,2.1,,1010.7,
2021-09-28,19.3,10.7,28.7,,,289.0,3.1,,1008.1,
2021-09-29,19.4,11.3,28.2,,,286.0,3.1,,1009.2,
2021-09-30,18.6,11.6,26.5,,,290.0,3.5,,1009.1,
2021-10-01,18.5,11.4,26.1,,,349.0,1.8,,1011.2,
2021-10-02,19.5,11.2,27.8,,,77.0,1.8,,1011.0,
2021-10-03,18.8,13.6,26.5,,,334.0,4.0,,1009.1,
2021-10-04,16.0,7.8,24.4,,,333.0,4.1,,1013.0,
2021-10-05,14.2,6.4,22.3,,,303.0,3.7,,1012.7,
2021-10-06,14.3,7.3,21.9,,,349.0,3.0,,1014.2,
2021-10-07,14.4,6.2,23.4,,,52.0,1.4,,1016.0,
2021-10-08,15.3,6.0,26.1,,,,1.5,,1016.6,
2021-10-09,16.7,6.9,27.7,,,,1.5,,1016.5,
2021-10-10,17.8,8.3,28.6,,,,0.9,,1016.5,
2021-10-11,18.8,9.7,29.4,,,,1.4,,1014.3,
2021-10-12,18.5,10.0,28.2,,,244.0,2.0,,1010.5,
2021-10-13,17.1,10.8,24.8,,,273.0,2.8,,1012.4,
2021-10-14,16.9,9.6,25.3,,,,1.7,,1017.3,
2021-10-15,17.6,9.4,27.8,,,43.0,1.4,,1016.4,
2021-10-16,16.9,8.6,27.0,,,,3.0,,1014.4,
2021-10-17,15.6,10.6,22.7,,,290.0,3.8,,1012.8,
2021-10-18,14.9,9.9,22.4,,,290.0,3.0,,1014.2,
2021-10-19,14.6,9.3,22.0,,,312.0,2.5,,1016.3,
2021-10-20,13.5,7.7,21.2,,,320.0,2.4,,1019.5,
2021-10-21,12.3,4.3,22.2,,,,1.1,,1022.1,
2021-10-22,12.3,4.2,22.5,,,,1.1,,1021.5,
2021-10-23,13.6,5.6,24.0,,,,1.5,,1019.4,
2021-10-24,13.4,4.6,24.0,,,291.0,2.1,,1018.2,
2021-10-25,12.9,5.9,20.7,,,314.0,2.8,,1016.3,
2021-10-26,13.1,7.3,20.7,,,12.0,1.4,,1017.7,
2021-10-27,13.0,6.2,21.4,,,42.0,0.8,,1019.3,
2021-10-28,12.3,8.3,17.9,,,,1.4,,1018.0,
2021-10-29,11.9,7.2,18.6,,,35.0,1.4,,1017.1,
2021-10-30,11.1,7.3,14.9,,,93.0,2.1,,1020.7,
2021-10-31,12.6,9.4,17.1,,,90.0,1.8,,1022.4,
2021-11-01,12.0,10.7,14.3,,,107.0,2.6,,1021.7,
2021-11-02,11.8,10.6,14.1,,,85.0,2.3,,1017.9,
2021-11-03,12.3,6.7,18.2,,,265.0,1.5,,1019.2,
2021-11-04,13.1,6.3,22.5,,,320.0,1.2,,1021.5,
2021-11-05,12.8,5.0,23.2,,,,1.1,,1020.8,
2021-11-06,13.3,5.8,23.5,,,304.0,1.1,,1019.5,
2021-11-07,12.9,4.9,23.2,,,326.0,1.4,,1017.9,
2021-11-08,12.2,5.8,20.9,,,30.0,0.8,,1019.3,
2021-11-09,11.8,4.6,21.3,,,78.0,0.8,,1022.0,
2021-11-10,13.1,6.0,20.4,0.0,,324.0,3.1,,1018.7,
2021-11-11,10.5,4.1,18.8,,,26.0,5.0,,1019.6,
2021-11-12,11.5,3.9,21.4,,,9.0,1.0,,1020.3,
2021-11-13,11.9,3.2,21.8,0.0,,,0.8,,1023.7,
2021-11-14,8.9,2.3,16.8,,,,0.9,,1024.0,
2021-11-15,12.3,3.9,21.9,,,17.0,0.8,,1019.0,
2021-11-16,12.5,4.1,23.3,0.0,,335.0,1.0,,1016.5,
2021-11-17,11.1,2.8,21.2,,,94.0,1.1,,1020.2,
2021-11-18,11.8,2.8,21.1,,,,0.8,,1020.8,
2021-11-19,12.2,5.3,20.1,,,,0.8,,1016.0,
2021-11-20,11.6,7.5,13.6,0.0,,21.0,1.2,,1011.7,
2021-11-21,10.8,6.4,16.2,0.5,,99.0,0.8,,1016.5,
2021-11-22,11.5,4.1,20.0,0.0,,116.0,0.8,,1021.7,
2021-11-23,12.3,4.1,19.6,,,24.0,0.9,,1023.5,
2021-11-24,11.8,9.6,13.1,,,8.0,1.0,,1019.3,
2021-11-25,9.2,8.4,10.4,,,46.0,1.1,,1017.8,
2021-11-26,9.2,6.8,13.2,,,2.0,0.8,,1020.8,
2021-11-27,12.4,8.0,16.3,0.3,,38.0,1.1,,1023.4,
2021-11-28,13.7,9.3,18.0,0.5,,66.0,1.0,,1020.5,
2021-11-29,11.8,7.5,16.2,0.0,,89.0,1.2,,1022.5,
2021-11-30,13.2,7.9,19.4,,,119.0,2.6,,1016.4,
2021-12-01,9.3,4.4,11.7,,,293.0,2.8,,1009.0,
2021-12-02,7.2,0.5,14.7,0.0,,48.0,2.0,,1018.6,
2021-12-03,7.1,-1.2,15.1,,,86.0,0.9,,1024.2,
2021-12-04,9.6,4.3,14.7,0.0,,87.0,2.0,,1022.8,
2021-12-05,9.8,4.7,16.5,0.0,,110.0,1.9,,1017.9,
2021-12-06,8.8,1.0,17.1,,,107.0,0.8,,1022.7,
2021-12-07,10.4,1.6,17.3,,,113.0,4.0,,1022.0,
2021-12-08,7.4,6.2,8.5,,,89.0,4.4,,1013.2,
2021-12-09,9.3,4.3,14.5,8.6,,342.0,1.4,,1019.2,
2021-12-10,4.8,1.2,9.3,,,66.0,0.8,,1028.3,
2021-12-11,9.9,2.1,16.8,0.0,,90.0,1.4,,1026.9,
2021-12-12,9.1,2.2,16.5,0.0,,81.0,1.2,,1027.0,
2021-12-13,7.7,3.7,12.4,,,79.0,1.4,,1023.2,
2021-12-14,10.6,8.1,14.1,,,113.0,3.5,,1016.9,
2021-12-15,9.5,7.3,12.0,,,103.0,3.4,,1015.6,
2021-12-16,5.8,3.5,9.0,,,70.0,2.1,,1018.0,
2021-12-17,4.2,2.5,6.2,,,33.0,1.2,,1016.6,
2021-12-18,4.7,4.0,6.6,,,18.0,1.4,,1012.4,
2021-12-19,4.1,2.8,5.2,,,51.0,2.5,,1013.7,
2021-12-20,3.0,1.8,5.3,,,44.0,2.4,,1011.3,
2021-12-21,1.9,-0.9,5.1,,,299.0,2.4,,1014.6,
2021-12-22,-1.2,-3.9,2.0,,,54.0,2.5,,1022.8,
2021-12-23,-2.6,-5.3,0.6,,,81.0,2.3,,1022.2,
2021-12-24,-4.5,-7.3,-0.5,,,53.0,2.8,,1023.3,
2021-12-25,-3.7,-8.1,1.2,,,71.0,1.1,,1027.1,
2021-12-26,-1.8,-4.7,3.2,,,76.0,0.9,,1028.1,
2021-12-27,-1.1,-4.6,3.8,,,70.0,0.8,,1026.7,
2021-12-28,-0.2,-4.0,4.4,,,77.0,0.9,,1023.5,
2021-12-29,1.4,-1.8,5.5,,,81.0,1.1,,1020.8,
2021-12-30,2.7,0.5,5.6,,,86.0,1.2,,1020.6,
2021-12-31,3.0,-0.1,7.3,,,86.0,0.9,,1022.7,
2022-01-01,3.3,0.1,6.5,,,77.0,0.9,,1021.5,
2022-01-02,3.5,1.3,6.2,,,6.0,1.5,,1018.4,
2022-01-03,2.0,-2.8,7.6,,,353.0,1.8,,1018.7,
2022-01-04,2.1,-0.5,5.6,,,310.0,1.8,,1018.9,
2022-01-05,2.7,-0.7,7.0,,,61.0,1.3,,1022.9,
2022-01-06,3.9,1.3,6.1,,,74.0,0.3,,1024.8,
2022-01-07,5.0,2.1,7.7,,,74.0,1.0,,1022.4,
2022-01-08,6.0,1.9,10.1,,,90.0,1.5,,1021.9,
2022-01-09,7.0,5.1,8.8,,,92.0,2.9,,1018.2,
2022-01-10,5.6,3.8,7.6,,,70.0,3.1,,1013.6,
2022-01-11,4.8,3.8,5.6,,,51.0,2.3,,1017.9,
2022-01-12,5.7,4.7,7.2,,,59.0,2.5,,1017.7,
2022-01-13,5.4,3.8,7.9,,,7.0,1.9,,1013.7,
2022-01-14,2.9,-1.9,6.8,,,23.0,3.4,,1013.1,
2022-01-15,0.0,-4.8,5.6,,,351.0,2.8,,1010.0,
2022-01-16,-1.8,-4.9,2.6,,,34.0,4.8,,1016.0,
2022-01-17,-3.9,-8.1,1.5,,,28.0,3.7,,1022.9,
2022-01-18,-4.0,-6.0,-2.6,,,54.0,2.2,,1021.5,
2022-01-19,-3.7,-7.3,-2.3,,,356.0,5.5,,1015.3,
2022-01-20,-6.7,-9.3,-2.8,,,4.0,5.0,,1024.9,
2022-01-21,-6.9,-11.0,-2.5,,,75.0,2.1,,1030.7,
2022-01-22,-2.6,-4.7,-0.8,,,79.0,2.8,,1025.9,
2022-01-23,-0.7,-1.7,1.0,,,96.0,7.6,,1015.0,
2022-01-24,-2.4,-5.0,-0.6,,,60.0,2.8,,1018.7,
2022-01-25,-3.8,-7.1,-1.0,,,87.0,3.1,,1024.8,
2022-01-26,-1.1,-1.9,0.0,,,67.0,2.7,,1015.2,
2022-01-27,-1.2,-6.0,2.0,,,345.0,3.4,,1014.3,
2022-01-28,-5.2,-9.0,-1.3,,,72.0,2.1,,1024.6,
2022-01-29,-3.4,-5.5,-1.1,,,79.0,1.7,,1026.4,
2022-01-30,-2.0,-4.7,-0.2,,,72.0,1.7,,1025.4,
2022-01-31,0.3,-0.7,1.1,,,68.0,2.4,,1018.6,
2022-02-01,1.7,0.4,3.2,,,56.0,1.8,,1020.0,
2022-02-02,3.8,2.0,5.7,,,81.0,2.5,,1024.6,
2022-02-03,5.4,3.5,8.4,,,94.0,3.8,,1018.2,
2022-02-04,3.8,1.1,5.7,,,45.0,1.8,,1012.5,
2022-02-05,1.2,-1.7,5.7,,,19.0,2.5,,1017.3,
2022-02-06,-0.2,-4.3,4.5,,,50.0,1.4,,1023.2,
2022-02-07,0.9,-3.1,6.1,,,71.0,1.5,,1023.8,
2022-02-08,2.9,1.2,4.0,,,72.0,2.4,,1021.4,
2022-02-09,5.8,3.8,8.3,,,87.0,4.5,,1015.7,
2022-02-10,4.5,2.3,7.2,,,343.0,3.1,,1012.3,
2022-02-11,3.1,-1.1,9.1,,,10.0,2.9,,1022.2,
2022-02-12,3.2,-3.6,11.9,,,349.0,1.5,,1025.6,
2022-02-13,4.6,-1.8,12.7,,,14.0,1.1,,1022.9,
2022-02-14,4.9,0.0,11.2,,,313.0,1.8,,1018.0,
2022-02-15,4.1,-1.4,10.4,,,56.0,1.2,,1020.3,
2022-02-16,4.4,0.3,9.6,,,54.0,1.7,,1020.7,
2022-02-17,3.8,-0.8,8.9,,,69.0,1.4,,1017.6,
2022-02-18,5.1,0.6,10.5,,,72.0,1.1,,1014.1,
2022-02-19,7.2,3.7,13.0,,,82.0,2.4,,1016.0,
2022-02-20,7.3,1.6,14.7,,,345.0,2.8,,1017.9,
2022-02-21,7.6,3.3,12.8,,,287.0,2.7,,1017.5,
2022-02-22,7.6,6.2,9.7,,,12.0,1.4,,1016.6,
2022-02-23,8.6,4.2,13.8,,,89.0,1.8,,1018.2,
2022-02-24,10.6,7.4,14.2,,,116.0,5.6,,1014.9,
2022-02-25,8.2,5.5,10.5,,,173.0,3.0,,1009.1,
2022-02-26,7.3,3.8,11.9,,,324.0,1.6,,1015.9,
2022-02-27,7.2,2.5,12.2,,,12.0,0.8,,1021.8,
2022-02-28,8.0,6.1,10.8,,,48.0,1.1,,1021.2,
2022-03-01,6.2,4.7,6.9,,,1.0,1.5,,1018.8,
2022-03-02,6.3,4.9,7.5,,,72.0,2.3,,1015.4,
2022-03-03,6.2,2.0,8.9,,,189.0,4.9,,1002.9,
2022-03-04,3.4,-0.4,7.8,,,317.0,4.1,,1012.1,
2022-03-05,3.8,-1.4,8.6,,,347.0,1.4,,1018.2,
2022-03-06,4.5,1.8,7.5,,,87.0,1.9,,1016.4,
2022-03-07,5.9,1.8,9.6,,,78.0,1.4,,1013.8,
2022-03-08,6.9,4.2,10.3,,,304.0,2.1,,1011.1,
2022-03-09,6.1,3.4,8.1,,,314.0,2.2,,1006.7,
2022-03-10,4.3,2.6,6.0,,,300.0,2.6,,1005.7,
2022-03-11,1.6,-3.4,3.8,,,297.0,3.7,,1004.3,
2022-03-12,-0.9,-4.8,2.8,,,8.0,2.8,,1016.3,
2022-03-13,-1.5,-4.0,0.7,,,15.0,2.8,,1019.1,
2022-03-14,-0.9,-4.6,3.2,,,3.0,4.9,,1022.8,
2022-03-15,-1.4,-5.0,2.5,,,21.0,7.0,,1024.8,
2022-03-16,0.5,-5.1,6.0,,,9.0,5.1,,1025.4,
2022-03-17,0.7,-3.0,3.6,,,34.0,2.0,,1024.2,
2022-03-18,1.8,-0.8,4.4,,,21.0,2.5,,1021.5,
2022-03-19,-0.6,-5.4,1.5,,,2.0,5.3,,1020.7,
2022-03-20,-1.9,-6.7,2.2,,,347.0,5.0,,1022.1,
2022-03-21,1.1,-3.8,6.0,,,42.0,2.5,,1021.3,
2022-03-22,2.5,-1.9,6.8,,,51.0,2.1,,1017.7,
2022-03-23,3.6,-0.9,8.3,,,39.0,1.9,,1016.3,
2022-03-24,3.6,0.7,7.1,,,32.0,1.8,,1012.9,
2022-03-25,4.2,0.9,8.0,,,358.0,2.7,,1014.6,
2022-03-26,3.5,-1.2,8.0,,,319.0,2.7,,1021.1,
2022-03-27,5.1,-1.3,11.6,,,338.0,3.6,,1024.2,
2022-03-28,7.3,-0.5,15.3,,,312.0,2.4,,1027.8,
2022-03-29,9.2,2.0,16.0,,,85.0,2.2,,1025.0,
2022-03-30,11.0,5.7,16.8,,,82.0,2.4,,1017.1,
2022-03-31,12.1,4.2,20.0,,,,1.7,,1019.4,
2022-04-01,13.9,6.4,22.0,,,73.0,1.8,,1020.5,
2022-04-02,16.0,7.6,25.2,,,91.0,3.0,,1016.3,
2022-04-03,15.2,8.3,22.6,,,268.0,3.6,,1013.5,
2022-04-04,13.6,7.0,20.5,,,286.0,3.4,,1015.6,
2022-04-05,14.5,7.5,21.8,,,293.0,2.7,,1016.6,
2022-04-06,16.1,9.5,23.7,,,71.0,2.7,,1009.1,
2022-04-07,14.6,8.5,20.8,,,290.0,4.1,,1008.9,
2022-04-08,13.2,8.7,17.5,,,257.0,5.1,,1007.3,
2022-04-09,13.9,6.4,22.2,,,303.0,4.0,,1011.3,
2022-04-10,13.9,7.7,21.0,,,315.0,2.6,,1012.9,
2022-04-11,13.5,7.3,20.4,,,258.0,3.4,,1008.9,
2022-04-12,9.4,4.7,13.5,,,303.0,5.1,,1007.9,
2022-04-13,6.4,1.4,11.1,,,324.0,4.8,,1015.0,
2022-04-14,7.6,-0.4,14.9,,,36.0,2.7,,1018.7,
2022-04-15,11.4,4.0,18.8,,,17.0,3.1,,1016.5,
2022-04-16,13.3,5.2,21.1,,,6.0,3.6,,1014.1,
2022-04-17,15.1,5.9,23.9,,,,2.4,,1014.0,
2022-04-18,17.7,12.1,24.0,,,122.0,5.2,,1012.0,
2022-04-19,14.2,8.0,16.7,,,98.0,4.1,,1009.4,
2022-04-20,12.2,6.5,18.7,,,288.0,4.0,,1012.7,
2022-04-21,13.8,7.6,20.6,,,299.0,3.8,,1013.7,
2022-04-22,16.2,7.1,25.0,,,347.0,2.3,,1014.1,
2022-04-23,18.9,9.1,28.2,,,68.0,2.1,,1011.4,
2022-04-24,20.1,10.5,29.1,,,61.0,1.9,,1008.7,
2022-04-25,17.4,11.9,26.3,,,71.0,3.4,,1010.0,
2022-04-26,19.0,10.0,27.9,,,282.0,2.7,,1009.9,
2022-04-27,19.0,9.4,27.9,,,308.0,2.4,,1010.5,
2022-04-28,19.4,10.3,27.9,,,340.0,2.0,,1010.0,
2022-04-29,19.3,12.6,25.7,,,71.0,2.1,,1012.0,
2022-04-30,18.0,13.6,24.0,,,92.0,3.4,,1010.0,
2022-05-01,15.2,11.4,20.5,,,350.0,3.6,,1007.7,
2022-05-02,15.6,9.3,22.1,,,307.0,3.6,,1009.3,
2022-05-03,16.8,11.8,22.1,,,344.0,2.4,,1008.6,
2022-05-04,15.1,11.3,20.0,,,43.0,2.4,,1008.6,
2022-05-05,11.9,7.9,14.9,,,322.0,3.4,,1007.2,
2022-05-06,10.9,5.2,15.9,,,334.0,5.7,,1008.4,
2022-05-07,12.6,7.1,18.1,,,322.0,4.1,,1010.0,
2022-05-08,13.5,7.2,19.3,,,316.0,3.0,,1013.9,
2022-05-09,14.3,8.0,20.7,,,349.0,2.7,,1013.5,
2022-05-10,15.7,8.5,22.5,,,347.0,3.1,,1012.6,
2022-05-11,14.7,8.2,20.9,,,313.0,2.7,,1014.1,
2022-05-12,15.0,9.0,21.1,,,305.0,3.7,,1015.5,
2022-05-13,16.8,7.9,24.9,,,341.0,2.4,,1018.0,
2022-05-14,17.7,10.1,24.6,,,,2.2,,1016.6,
2022-05-15,14.9,10.5,18.6,,,340.0,2.4,,1014.1,
2022-05-16,16.6,9.3,23.6,,,310.0,4.7,,1012.7,
2022-05-17,16.5,10.4,22.4,,,311.0,3.4,,1012.7,
2022-05-18,18.4,11.3,25.6,,,305.0,2.8,,1011.5,
2022-05-19,17.0,11.7,22.6,,,302.0,3.4,,1011.9,
2022-05-20,16.0,9.9,21.5,,,340.0,5.7,,1014.7,
2022-05-21,17.3,7.0,26.4,,,85.0,2.8,,1015.9,
2022-05-22,19.0,9.8,27.6,,,74.0,3.1,,1008.5,
2022-05-23,16.1,11.6,20.2,,,295.0,6.5,,1002.3,
2022-05-24,15.6,9.8,20.9,,,307.0,5.9,,1007.6,
2022-05-25,16.6,9.3,23.4,,,,3.8,,1013.3,
2022-05-26,18.5,9.6,26.5,,,,2.6,,1014.3,
2022-05-27,22.6,14.5,30.0,,,,6.4,,1012.9,
2022-05-28,23.4,17.8,30.1,0.3,,332.0,5.6,,1010.4,
2022-05-29,24.4,17.1,31.4,0.0,,317.0,6.2,,1011.5,
2022-05-30,26.5,20.3,32.9,0.0,,313.0,5.1,,1011.6,
2022-05-31,26.5,20.5,34.2,0.0,,308.0,5.6,,1009.8,
2022-06-01,26.2,19.1,35.1,0.0,,301.0,5.1,,1008.2,
2022-06-02,28.5,19.9,37.8,0.2,,323.0,6.2,,1007.5,
2022-06-03,28.0,21.4,36.9,0.0,,259.0,5.8,,1007.9,
2022-06-04,24.1,19.2,31.5,0.0,,293.0,6.5,,1009.8,
2022-06-05,22.9,17.5,30.7,0.0,,295.0,7.0,,1009.4,
2022-06-06,21.5,16.7,27.1,0.1,,304.0,8.0,,1007.8,
2022-06-07,22.4,18.0,28.0,0.1,,302.0,7.7,,1006.5,
2022-06-08,22.8,18.0,29.0,0.1,,301.0,7.8,,1007.8,
2022-06-09,21.8,17.0,27.2,0.5,,300.0,8.1,,1009.4,
2022-06-10,23.2,17.8,29.7,0.0,,301.0,8.5,,1010.1,
2022-06-11,24.8,17.9,33.4,0.0,,297.0,7.2,,1009.0,
2022-06-12,23.1,18.8,29.3,0.0,,295.0,6.7,,1004.3,
2022-06-13,20.9,16.6,26.0,0.1,,293.0,8.2,,1004.4,
2022-06-14,18.9,14.4,23.0,3.0,,309.0,4.0,,1006.5,
2022-06-15,20.4,13.6,26.3,0.0,,319.0,3.2,,1009.2,
2022-06-16,22.7,14.4,29.7,0.0,,348.0,3.2,,1009.5,
2022-06-17,24.2,15.4,31.8,0.0,,289.0,3.5,,1007.5,
2022-06-18,25.3,16.0,34.0,0.0,,330.0,3.7,,1004.7,
2022-06-19,25.2,16.7,32.9,0.0,,289.0,5.1,,1004.5,
2022-06-20,25.3,16.9,33.0,0.0,,303.0,5.7,,1004.9,
2022-06-21,22.5,18.0,27.1,0.0,,309.0,9.1,,1001.3,
2022-06-22,22.4,16.1,28.0,0.0,,343.0,9.9,,998.6,
2022-06-23,22.4,15.3,28.9,0.0,,329.0,6.4,,1003.4,
2022-06-24,20.3,14.9,25.9,7.0,,324.0,5.9,,1005.0,
2022-06-25,19.3,15.1,24.1,6.2,,18.0,4.7,,1004.4,
2022-06-26,19.6,13.2,25.3,0.0,,329.0,6.2,,1004.3,
2022-06-27,19.6,13.1,25.2,0.0,,345.0,5.3,,1006.0,
2022-06-28,20.2,14.1,25.7,0.0,,334.0,3.5,,1005.8,
2022-06-29,22.0,14.8,28.6,0.0,,293.0,3.3,,1005.6,
2022-06-30,23.7,15.4,30.9,0.0,,298.0,3.7,,1004.4,
2022-07-01,23.6,16.6,30.7,0.0,,301.0,5.2,,1002.3,
2022-07-02,24.7,17.1,31.3,0.0,,349.0,7.0,,1001.6,
2022-07-03,24.3,15.2,31.6,0.0,,13.0,6.5,,1002.2,
2022-07-04,24.6,13.9,33.2,0.0,,7.0,4.6,,1002.3,
2022-07-05,25.4,15.5,34.0,0.0,,319.0,4.0,,1001.7,
2022-07-06,25.9,17.2,34.3,0.0,,334.0,4.6,,1000.7,
2022-07-07,26.3,18.6,33.6,0.0,,305.0,5.2,,1001.3,
2022-07-08,26.4,18.7,33.5,0.0,,318.0,5.5,,1001.9,
2022-07-09,26.2,18.0,33.9,0.0,,313.0,5.2,,1000.7,
2022-07-10,24.4,18.6,29.8,0.0,,296.0,7.4,,999.1,
2022-07-11,24.5,18.0,30.8,0.0,,317.0,7.1,,1001.7,
2022-07-12,25.6,17.4,32.7,0.0,,321.0,5.7,,1004.3,
2022-07-13,25.7,17.1,33.0,0.0,,331.0,5.7,,1003.4,
2022-07-14,25.5,16.2,33.4,0.0,,350.0,7.1,,1001.7,
2022-07-15,25.5,16.4,33.4,0.0,,292.0,5.4,,1000.0,
2022-07-16,25.7,18.2,32.8,0.0,,319.0,7.2,,1001.1,
2022-07-17,26.4,17.2,34.3,0.0,,343.0,6.1,,1001.7,
2022-07-18,27.2,18.8,34.9,0.0,,346.0,5.9,,1001.7,
2022-07-19,27.6,18.9,35.5,0.0,,344.0,4.2,,1002.3,
2022-07-20,26.8,17.9,34.7,0.0,,286.0,4.4,,1002.4,
2022-07-21,25.0,17.9,31.8,0.0,,327.0,6.7,,1000.8,
2022-07-22,24.5,15.4,32.1,0.0,,343.0,7.2,,1003.2,
2022-07-23,24.9,15.8,32.7,0.0,,1.0,7.3,,1004.3,
2022-07-24,24.1,15.2,31.4,0.0,,16.0,8.0,,1002.8,
2022-07-25,24.6,14.7,33.0,0.0,,14.0,6.4,,1001.6,
2022-07-26,25.2,15.9,33.4,0.0,,344.0,5.4,,1001.0,
2022-07-27,26.5,16.5,34.9,0.0,,2.0,4.3,,1001.6,
2022-07-28,27.8,16.9,37.0,0.0,,15.0,3.3,,1002.9,
2022-07-29,28.6,18.1,38.1,0.0,,310.0,3.7,,1003.6,
2022-07-30,27.6,19.1,35.4,0.0,,269.0,4.5,,1003.5,
2022-07-31,27.5,18.8,36.2,0.0,,310.0,4.8,,1000.9,
2022-08-01,28.2,19.2,36.6,0.0,,329.0,4.3,,999.2,
2022-08-02,28.4,19.3,36.8,0.0,,353.0,3.8,,1000.3,
2022-08-03,28.8,20.8,37.4,0.0,,321.0,4.5,,1001.2,
2022-08-04,29.1,20.5,37.3,0.0,,308.0,4.0,,1003.3,
2022-08-05,28.8,20.5,36.8,0.0,,296.0,5.0,,1002.8,
2022-08-06,28.6,21.1,36.7,0.0,,304.0,5.7,,1000.4,
2022-08-07,27.1,20.4,33.6,0.0,,306.0,7.2,,998.6,
2022-08-08,26.7,20.2,33.9,0.0,,311.0,6.3,,1000.7,
2022-08-09,26.4,19.5,34.0,0.0,,284.0,5.1,,1002.4,
2022-08-10,26.2,19.8,32.4,0.0,,304.0,6.4,,1001.1,
2022-08-11,26.3,19.9,32.6,0.4,,301.0,6.0,,1001.1,
2022-08-12,27.1,19.6,34.3,0.0,,305.0,5.6,,1002.0,
2022-08-13,27.0,19.8,34.8,0.0,,303.0,6.0,,1000.8,
2022-08-14,26.6,19.9,33.9,0.0,,296.0,7.0,,999.7,
2022-08-15,25.5,20.0,31.5,0.0,,292.0,6.2,,1002.6,
2022-08-16,26.1,18.0,33.7,0.0,,295.0,4.5,,1005.6,
2022-08-17,27.5,19.0,35.7,0.0,,294.0,4.1,,1003.2,
2022-08-18,27.7,19.8,35.8,0.0,,311.0,4.9,,1000.8,
2022-08-19,26.8,19.7,34.2,0.0,,297.0,5.0,,999.8,
2022-08-20,26.3,19.3,32.8,0.0,,300.0,4.1,,1001.4,
2022-08-21,26.3,19.5,33.5,0.0,,293.0,4.1,,1001.2,
2022-08-22,25.8,19.5,32.7,0.0,,296.0,4.6,,1001.8,
2022-08-23,26.2,19.9,32.9,0.5,,300.0,4.5,,1004.2,
2022-08-24,25.8,19.1,32.5,0.0,,246.0,3.8,,1005.7,
2022-08-25,24.6,18.3,31.4,0.0,,276.0,4.5,,1006.0,
2022-08-26,23.4,16.6,30.2,0.0,,268.0,4.1,,1006.3,
2022-08-27,23.8,14.9,32.3,0.0,,247.0,3.2,,1008.0,
2022-08-28,24.9,14.7,34.2,0.0,,254.0,3.6,,1008.9,
2022-08-29,27.0,17.0,36.4,0.0,,275.0,3.9,,1008.7,
2022-08-30,27.9,18.3,37.3,0.0,,276.0,3.8,,1008.9,
2022-08-31,27.9,18.9,37.3,0.0,,258.0,4.1,,1008.0,
2022-09-01,27.7,18.5,36.7,0.0,,246.0,3.5,,1006.7,
2022-09-02,28.0,19.0,36.7,0.0,,261.0,3.6,,1007.5,
2022-09-03,27.8,18.6,37.1,0.0,,251.0,3.5,,1008.6,
2022-09-04,26.8,18.4,35.9,0.0,,277.0,4.3,,1007.6,
2022-09-05,25.3,17.8,33.4,0.0,,316.0,5.3,,1005.4,
2022-09-06,23.8,16.9,30.8,0.0,,338.0,5.2,,1004.6,
2022-09-07,21.8,13.4,29.5,0.0,,346.0,4.9,,1006.0,
2022-09-08,21.7,11.8,30.7,0.0,,321.0,3.3,,1009.0,
2022-09-09,22.7,12.5,32.1,0.0,,301.0,2.5,,1010.8,
2022-09-10,23.7,13.6,33.7,0.0,,284.0,2.5,,1009.9,
2022-09-11,24.5,14.4,34.2,0.0,,304.0,3.1,,1007.2,
2022-09-12,24.3,16.0,33.4,0.0,,275.0,4.1,,1004.0,
2022-09-13,21.4,16.1,28.2,0.1,,289.0,4.7,,1002.9,
2022-09-14,21.0,14.0,28.9,0.0,,299.0,3.4,,1007.1,
2022-09-15,21.3,12.3,29.8,0.0,,321.0,2.7,,1010.8,
2022-09-16,23.3,13.4,33.2,0.0,,327.0,2.3,,1009.9,
2022-09-17,24.9,15.0,35.2,0.0,,281.0,2.2,,1006.4,
2022-09-18,24.7,16.2,35.0,0.0,,263.0,2.8,,1006.1,
2022-09-19,22.9,14.7,31.8,0.0,,270.0,3.8,,1007.1,
2022-09-20,22.0,14.4,30.0,0.2,,268.0,2.5,,1007.3,
2022-09-21,20.1,15.6,26.1,2.5,,301.0,4.1,,1004.2,
2022-09-22,18.0,13.5,24.2,1.1,,284.0,3.6,,1006.7,
2022-09-23,17.6,12.3,24.1,0.0,,278.0,3.1,,1010.4,
2022-09-24,15.9,11.2,22.1,0.2,,286.0,3.7,,1013.4,
2022-09-25,16.5,7.0,26.3,0.0,,320.0,2.7,,1016.3,
2022-09-26,18.7,8.3,29.8,0.0,,300.0,2.1,,1014.6,
2022-09-27,19.5,9.5,30.5,0.0,,276.0,2.5,,1011.8,
2022-09-28,19.0,10.1,28.3,0.0,,276.0,3.4,,1010.3,
2022-09-29,21.0,13.5,30.0,0.0,,276.0,3.4,,1010.1,
2022-09-30,21.4,12.1,31.4,0.0,,296.0,3.4,,1013.9,
2022-10-01,22.3,12.3,32.9,0.0,,304.0,4.0,,1014.7,
2022-10-02,22.1,11.5,32.9,0.0,,283.0,2.9,,1009.2,
2022-10-03,22.3,14.8,31.2,0.0,,258.0,2.6,,1004.6,
2022-10-04,21.4,14.5,29.7,0.0,,181.0,2.7,,1009.0,
2022-10-05,20.5,14.0,29.1,0.0,,289.0,2.1,,1013.3,
2022-10-06,19.6,11.8,28.3,0.0,,258.0,1.4,,1014.2,
2022-10-07,19.0,10.9,28.2,2.2,,100.0,2.4,,1012.9,
2022-10-08,17.4,13.2,22.9,3.2,,315.0,2.9,,1011.4,
2022-10-09,15.3,10.2,22.0,0.0,,302.0,3.0,,1013.1,
2022-10-10,16.0,8.9,24.1,0.0,,317.0,2.1,,1016.8,
2022-10-11,16.6,9.3,25.7,0.0,,305.0,1.8,,1017.4,
2022-10-12,16.6,8.4,25.3,0.0,,307.0,1.5,,1015.6,
2022-10-13,16.9,11.4,23.7,0.2,,342.0,1.3,,1013.6,
2022-10-14,17.5,11.8,24.6,0.0,,297.0,1.9,,1012.0,
2022-10-15,15.1,12.4,18.7,3.6,,,0.9,,1011.9,
2022-10-16,15.6,10.2,22.1,0.0,,,1.3,,1015.9,
2022-10-17,17.9,12.1,25.9,0.0,,38.0,2.0,,1017.0,
2022-10-18,18.2,11.8,25.8,0.1,,52.0,2.4,,1016.7,
2022-10-19,17.5,11.9,24.6,0.0,,39.0,1.9,,1015.2,
2022-10-20,15.2,10.1,22.5,0.8,,306.0,2.4,,1012.4,
2022-10-21,14.4,10.2,20.8,0.0,,326.0,2.7,,1013.2,
2022-10-22,13.1,7.7,20.2,0.0,,36.0,1.6,,1019.1,
2022-10-23,12.5,5.0,21.6,0.0,,,1.1,,1021.6,
2022-10-24,14.0,7.5,23.4,0.0,,294.0,1.1,,1019.1,
2022-10-25,13.9,6.0,23.8,0.0,,,1.1,,1018.2,
2022-10-26,14.2,7.4,23.2,0.0,,,1.4,,1018.9,
2022-10-27,15.2,9.2,23.3,0.0,,39.0,1.1,,1019.9,
2022-10-28,14.4,8.5,23.1,0.0,,324.0,2.1,,1018.8,
2022-10-29,12.4,4.5,22.3,0.0,,,1.1,,1017.9,
2022-10-30,13.1,4.6,22.8,0.0,,99.0,1.8,,1017.8,
2022-10-31,13.6,9.3,19.5,1.2,,123.0,1.2,,1017.0,
2022-11-01,13.1,6.4,21.8,0.0,,302.0,2.0,,1015.8,
2022-11-02,12.2,5.3,21.2,0.0,,295.0,1.8,,1016.4,
2022-11-03,12.5,4.8,21.9,0.0,,286.0,2.1,,1016.3,
2022-11-04,12.8,6.6,21.0,0.0,,278.0,1.7,,1016.7,
2022-11-05,12.8,6.6,21.3,0.0,,260.0,1.0,,1017.8,
2022-11-06,12.6,6.3,21.0,0.0,,103.0,1.1,,1018.8,
2022-11-07,10.3,9.0,12.5,7.8,,77.0,1.7,,1015.9,
2022-11-08,10.1,8.5,13.5,2.5,,67.0,1.6,,1014.9,
2022-11-09,9.7,7.3,13.3,0.3,,55.0,1.1,,1016.9,
2022-11-10,9.7,6.8,14.8,0.6,,49.0,0.8,,1019.3,
2022-11-11,9.9,4.6,16.6,0.0,,107.0,0.8,,1023.3,
2022-11-12,10.1,4.1,18.3,0.0,,40.0,0.8,,1024.8,
2022-11-13,9.5,2.8,18.4,0.0,,11.0,0.8,,1025.3,
2022-11-14,9.1,2.0,18.0,0.0,,,0.8,,1020.5,
2022-11-15,9.8,4.1,17.2,1.8,,,1.1,,1018.5,
2022-11-16,9.1,7.2,11.2,45.1,,83.0,1.5,,1014.9,
2022-11-17,8.5,5.5,12.3,0.8,,114.0,0.8,,1016.7,
2022-11-18,9.1,7.4,11.9,1.2,,69.0,1.1,,1019.3,
2022-11-19,10.5,8.0,15.0,0.7,,,0.8,,1024.3,
2022-11-20,10.3,4.7,17.6,0.0,,,0.5,,1026.4,
2022-11-21,10.0,5.2,16.2,0.0,,85.0,1.0,,1022.6,
2022-11-22,10.4,6.8,15.0,0.0,,94.0,1.7,,1018.6,
2022-11-23,10.2,5.6,15.8,0.0,,98.0,1.0,,1020.4,
2022-11-24,10.1,6.4,14.0,2.9,,99.0,2.7,,1015.1,
2022-11-25,8.7,7.1,10.4,30.5,,45.0,1.7,,1008.8,
2022-11-26,6.9,4.9,9.6,3.8,,315.0,2.1,,1013.1,
2022-11-27,5.9,1.4,10.2,0.0,,59.0,1.7,,1021.6,
2022-11-28,7.3,2.4,11.3,0.0,,108.0,2.1,,1020.1,
2022-11-29,9.9,8.4,12.3,2.1,,84.0,2.0,,1018.1,
2022-11-30,10.0,8.2,12.4,0.4,,358.0,1.1,,1016.5,
2022-12-01,9.2,5.3,12.8,0.0,,96.0,0.7,,1021.3,
2022-12-02,9.3,6.3,14.0,0.2,,297.0,0.9,,1021.1,
2022-12-03,8.4,3.5,14.7,0.0,,349.0,0.9,,1020.4,
2022-12-04,6.8,1.5,12.4,0.0,,46.0,0.9,,1022.0,
2022-12-05,6.4,2.1,12.1,0.0,,65.0,0.9,,1021.6,
2022-12-06,6.4,4.1,9.4,0.7,,81.0,0.8,,1020.4,
2022-12-07,6.7,4.1,10.0,0.0,,76.0,0.8,,1021.1,
2022-12-08,7.2,6.1,8.4,1.8,,62.0,1.1,,1023.9,
2022-12-09,6.4,2.9,10.3,0.0,,74.0,0.8,,1025.0,
2022-12-10,6.1,2.2,11.3,0.0,,88.0,0.7,,1023.0,
2022-12-11,6.5,2.5,10.7,0.0,,81.0,1.1,,1021.2,
2022-12-12,8.2,7.0,10.3,3.8,,82.0,1.6,,1018.4,
2022-12-13,8.2,7.6,9.1,1.5,,71.0,1.5,,1017.4,
2022-12-14,7.7,6.6,8.6,10.2,,69.0,1.7,,1019.2,
2022-12-15,8.0,6.4,9.9,6.8,,59.0,0.8,,1021.6,
2022-12-16,8.0,3.8,13.2,0.0,,23.0,0.3,,1024.1,
2022-12-17,7.6,2.3,13.7,0.0,,43.0,0.5,,1025.1,
2022-12-18,6.4,1.3,12.8,0.0,,67.0,0.7,,1026.2,
2022-12-19,6.5,1.2,12.8,0.0,,80.0,0.9,,1023.2,
2022-12-20,6.7,4.2,10.0,0.3,,39.0,1.4,,1019.2,
2022-12-21,6.9,4.9,10.6,3.9,,79.0,2.3,,1018.1,
2022-12-22,5.4,0.9,11.2,0.0,,76.0,1.1,,1019.9,
2022-12-23,4.6,0.8,9.7,0.0,,84.0,0.9,,1018.3,
2022-12-24,4.5,0.4,10.7,0.0,,292.0,1.0,,1015.5,
2022-12-25,3.6,0.1,8.6,0.0,,71.0,0.9,,1018.0,
2022-12-26,2.9,2.0,3.9,2.8,,56.0,2.1,,1020.0,
2022-12-27,3.3,0.5,8.2,0.0,,14.0,2.3,,1024.6,
2022-12-28,2.9,-1.5,8.7,0.0,,354.0,1.3,,1026.0,
2022-12-29,3.6,-0.8,9.4,0.0,,75.0,0.9,,1028.0,
2022-12-30,2.5,-3.0,8.3,0.0,,74.0,0.9,,1031.5,
2022-12-31,1.7,-3.4,7.9,0.0,,75.0,0.9,,1031.6,
2023-01-01,1.7,-3.9,8.3,0.0,,70.0,0.8,,1032.0,
2023-01-02,0.9,-5.0,9.3,0.0,,74.0,1.1,,1031.8,
2023-01-03,0.9,-5.3,9.7,0.0,,98.0,1.3,,1030.4,
2023-01-04,1.3,-5.0,10.1,0.0,,48.0,1.1,,1023.7,
2023-01-05,2.3,-3.7,9.9,0.0,,354.0,1.4,,1019.4,
2023-01-06,3.3,-0.8,8.0,0.7,,82.0,1.1,,1021.6,
2023-01-07,3.7,-0.4,8.1,1.0,,29.0,1.2,,1022.5,
2023-01-08,1.6,-2.2,6.6,0.0,,74.0,1.1,,1022.6,
2023-01-09,0.5,-3.2,5.9,0.0,,72.0,1.1,,1023.7,
2023-01-10,-0.7,-5.2,5.3,0.0,,80.0,1.0,,1027.4,
2023-01-11,-0.3,-5.1,5.6,0.0,,80.0,1.1,,1028.5,
2023-01-12,0.9,-3.5,6.5,0.0,,100.0,2.1,,1025.8,
2023-01-13,1.6,-3.0,5.7,0.0,,100.0,2.6,,1023.1,
2023-01-14,2.7,2.1,3.5,12.7,,72.0,2.0,,1022.6,
2023-01-15,3.7,0.9,6.2,0.8,,55.0,1.1,,1022.5,
2023-01-16,3.3,2.2,4.1,16.8,,46.0,1.4,,1020.6,
2023-01-17,6.0,2.7,12.1,0.7,,106.0,1.0,,1023.2,
2023-01-18,5.7,1.6,10.3,0.0,,35.0,1.1,,1025.5,
2023-01-19,4.5,-0.2,10.9,0.0,,43.0,0.6,,1026.2,
2023-01-20,5.2,-0.1,12.0,0.0,,94.0,0.8,,1023.1,
2023-01-21,5.2,0.0,11.5,0.0,,87.0,1.3,,1023.0,
2023-01-22,4.3,-0.7,10.6,0.0,,75.0,0.8,,1024.2,
2023-01-23,4.2,-1.3,10.8,0.0,,84.0,0.8,,1024.7,
2023-01-24,4.0,-0.9,10.3,0.0,,83.0,0.9,,1025.1,
2023-01-25,3.1,-1.4,9.1,0.0,,76.0,1.0,,1023.0,
2023-01-26,3.2,-0.8,8.6,0.0,,89.0,1.0,,1022.8,
2023-01-27,3.3,-0.4,7.8,0.3,,82.0,1.9,,1023.0,
2023-01-28,4.1,3.4,5.2,9.6,,75.0,3.3,,1019.0,
2023-01-29,3.5,2.2,5.5,5.7,,63.0,1.7,,1016.9,
2023-01-30,3.2,2.3,5.0,5.1,,56.0,1.7,,1013.9,
2023-01-31,2.8,2.1,4.3,9.3,,50.0,1.6,,1008.1,
2023-02-01,2.8,1.5,5.5,13.5,,55.0,2.0,,1008.0,
2023-02-02,1.9,-2.5,6.0,2.7,,317.0,5.7,,1012.4,
2023-02-03,-0.6,-5.1,4.7,0.0,,82.0,2.8,,1023.5,
2023-02-04,-0.1,-1.3,1.1,5.8,,76.0,2.8,,1018.4,
2023-02-05,-0.7,-1.3,0.2,3.8,,80.0,2.4,,1013.7,
2023-02-06,0.9,0.0,2.9,27.5,,61.0,2.7,,1003.6,
2023-02-07,0.1,-3.9,2.5,4.1,,338.0,5.5,,1007.7,
2023-02-08,-3.2,-6.1,1.4,0.0,,352.0,5.4,,1019.5,
2023-02-09,-3.9,-7.5,1.3,0.0,,48.0,2.7,,1027.2,
2023-02-10,-3.8,-7.7,1.4,0.0,,73.0,2.4,,1030.2,
2023-02-11,-3.2,-7.3,2.7,0.0,,76.0,2.5,,1028.5,
2023-02-12,-2.8,-6.8,3.1,0.0,,78.0,2.3,,1025.2,
2023-02-13,-2.8,-7.1,3.1,0.0,,55.0,3.1,,1027.1,
2023-02-14,-3.5,-8.1,2.6,0.0,,81.0,2.4,,1026.5,
2023-02-15,-2.5,-7.0,3.5,0.0,,49.0,2.6,,1021.1,
2023-02-16,-1.6,-5.3,3.9,0.0,,32.0,2.4,,1027.0,
2023-02-17,-1.4,-6.5,4.8,0.0,,72.0,1.8,,1031.7,
2023-02-18,0.5,-4.9,7.5,0.0,,63.0,1.1,,1029.4,
2023-02-19,3.3,-1.9,9.4,0.0,,29.0,1.2,,1026.7,
2023-02-20,4.9,0.8,9.9,0.0,,79.0,1.2,,1023.4,
2023-02-21,5.9,1.0,12.5,0.0,,327.0,2.1,,1019.2,
2023-02-22,5.8,0.1,12.4,0.0,,67.0,1.4,,1019.2,
2023-02-23,6.7,1.1,12.9,0.0,,64.0,0.8,,1016.5,
2023-02-24,7.3,2.1,13.5,0.0,,50.0,1.7,,1017.7,
2023-02-25,7.3,2.2,13.6,0.0,,81.0,1.2,,1020.4,
2023-02-26,8.9,3.0,16.0,0.0,,91.0,1.9,,1023.8,
2023-02-27,10.2,3.9,18.2,0.0,,90.0,1.4,,1026.7,
2023-02-28,11.4,4.4,19.7,0.0,,48.0,0.9,,1024.6,
2023-03-01,12.8,6.3,20.5,0.0,,61.0,1.1,,1019.3,
2023-03-02,13.6,7.9,20.6,0.0,,66.0,1.6,,1015.6,
2023-03-03,13.6,9.9,19.5,0.7,,76.0,2.3,,1013.1,
2023-03-04,11.5,7.6,17.0,0.0,,298.0,2.5,,1016.0,
2023-03-05,11.8,6.1,18.0,0.0,,98.0,2.8,,1015.1,
2023-03-06,10.4,5.7,12.5,3.8,,265.0,5.4,,1009.3,
2023-03-07,8.1,2.4,14.1,0.0,,305.0,2.2,,1016.5,
2023-03-08,9.2,4.9,14.2,0.5,,32.0,1.1,,1015.8,
2023-03-09,9.6,4.1,15.7,0.0,,306.0,2.8,,1014.0,
2023-03-10,10.2,5.9,15.2,0.0,,304.0,3.0,,1016.3,
2023-03-11,11.7,6.6,17.5,0.0,,115.0,2.8,,1016.7,
2023-03-12,13.0,8.3,18.5,2.1,,121.0,4.3,,1011.4,
2023-03-13,9.3,6.8,10.7,19.1,,103.0,3.4,,1009.9,
2023-03-14,8.6,5.8,11.1,27.4,,98.0,3.3,,1010.7,
2023-03-15,7.9,5.6,9.7,32.3,,1.0,2.8,,1006.6,
2023-03-16,9.6,6.1,13.5,0.3,,286.0,3.7,,1010.0,
2023-03-17,7.7,4.8,11.4,5.9,,79.0,2.4,,1015.0,
2023-03-18,7.7,4.8,10.6,25.2,,94.0,3.3,,1012.2,
2023-03-19,6.9,4.5,9.6,25.8,,43.0,2.4,,1007.6,
2023-03-20,8.0,4.3,11.9,0.0,,14.0,2.4,,1009.6,
2023-03-21,9.1,3.5,15.7,0.0,,347.0,4.4,,1010.2,
2023-03-22,10.7,4.6,17.8,0.0,,326.0,2.4,,1011.2,
2023-03-23,10.7,6.7,15.0,0.0,,316.0,1.8,,1013.4,
2023-03-24,10.9,6.4,15.7,1.6,,65.0,1.9,,1014.1,
2023-03-25,10.3,7.8,13.1,2.5,,74.0,2.0,,1011.2,
2023-03-26,10.5,7.0,15.4,1.5,,22.0,1.9,,1009.8,
2023-03-27,12.1,7.1,18.1,0.1,,298.0,3.2,,1010.1,
2023-03-28,10.9,7.7,14.7,0.9,,255.0,4.3,,1012.4,
2023-03-29,7.8,2.2,10.0,39.5,,232.0,6.5,,1008.5,
2023-03-30,3.1,-0.8,7.0,0.0,,314.0,4.9,,1014.9,
2023-03-31,2.1,-3.2,6.6,0.0,,329.0,6.9,,1016.2,
2023-04-01,5.8,-2.3,13.8,0.0,,296.0,3.2,,1017.5,
2023-04-02,9.4,5.5,14.1,0.0,,299.0,2.7,,1016.5,
2023-04-03,12.4,7.1,18.5,0.0,,16.0,2.1,,1016.1,
2023-04-04,15.1,8.8,22.2,0.0,,114.0,4.1,,1014.7,
2023-04-05,11.9,8.0,15.1,3.5,,245.0,4.6,,1011.0,
2023-04-06,9.4,6.3,12.6,4.5,,262.0,3.2,,1012.8,
2023-04-07,8.0,5.7,9.8,9.8,,161.0,2.8,,1013.4,
2023-04-08,9.8,3.1,16.7,0.0,,352.0,2.4,,1016.4,
2023-04-09,11.5,8.2,15.9,2.7,,101.0,3.4,,1018.8,
2023-04-10,13.2,9.4,18.7,5.0,,119.0,4.1,,1012.5,
2023-04-11,11.7,7.5,13.8,26.4,,144.0,3.4,,1004.8,
2023-04-12,8.2,5.2,11.6,2.3,,296.0,3.3,,1003.7,
2023-04-13,8.6,5.4,12.5,2.9,,300.0,3.3,,1007.6,
2023-04-14,9.9,3.8,16.2,0.0,,291.0,2.3,,1018.5,
2023-04-15,12.7,6.0,19.5,0.0,,75.0,1.8,,1020.3,
2023-04-16,14.8,8.1,21.9,0.0,,57.0,1.8,,1015.6,
2023-04-17,16.7,8.8,24.3,0.0,,30.0,1.8,,1013.5,
2023-04-18,17.5,11.1,23.9,0.6,,82.0,2.7,,1014.4,
2023-04-19,15.7,11.8,21.0,3.2,,43.0,2.9,,1013.3,
2023-04-20,12.6,7.7,15.5,15.6,,260.0,3.8,,1008.2,
2023-04-21,11.4,6.0,17.2,0.0,,298.0,3.6,,1008.7,
2023-04-22,12.6,6.2,18.4,0.0,,352.0,1.8,,1011.7,
2023-04-23,13.8,9.5,18.9,2.1,,54.0,2.4,,1010.7,
2023-04-24,12.4,7.1,17.5,0.0,,298.0,3.9,,1010.5,
2023-04-25,12.9,5.8,19.8,0.1,,304.0,2.6,,1013.1,
2023-04-26,13.6,7.2,20.0,0.0,,315.0,2.3,,1012.0,
2023-04-27,12.3,8.8,17.3,5.1,,309.0,2.4,,1009.8,
2023-04-28,11.4,7.3,16.3,4.4,,315.0,2.8,,1008.0,
2023-04-29,9.6,6.6,13.7,6.2,,313.0,2.6,,1006.7,
2023-04-30,9.3,6.0,13.4,3.8,,313.0,2.8,,1009.9,
2023-05-01,11.3,4.7,17.6,0.0,,313.0,3.1,,1014.4,
2023-05-02,12.6,4.6,19.5,0.0,,345.0,2.5,,1017.8,
2023-05-03,13.9,4.7,21.7,0.0,,349.0,3.1,,1020.2,
2023-05-04,15.5,6.5,23.9,0.0,,59.0,2.1,,1019.5,
2023-05-05,17.6,8.8,25.9,0.0,,90.0,3.1,,1014.3,
2023-05-06,16.3,11.8,20.2,1.8,,123.0,4.2,,1009.5,
2023-05-07,14.0,9.7,18.6,0.0,,302.0,3.8,,1009.7,
2023-05-08,13.6,9.1,19.1,3.9,,320.0,2.9,,1011.4,
2023-05-09,15.7,8.5,22.9,0.0,,331.0,1.8,,1012.2,
2023-05-10,16.8,10.6,22.7,0.0,,305.0,2.4,,1011.8,
2023-05-11,19.9,10.6,28.6,0.0,,58.0,2.4,,1010.9,
2023-05-12,18.8,14.7,22.5,2.2,,81.0,2.9,,1009.7,
2023-05-13,16.0,11.6,20.8,2.5,,309.0,4.9,,1010.9,
2023-05-14,16.7,9.7,23.4,0.0,,300.0,5.0,,1014.0,
2023-05-15,17.3,9.1,24.8,0.0,,2.0,3.7,,1013.5,
2023-05-16,18.9,9.5,27.5,0.0,,42.0,2.6,,1011.9,
2023-05-17,21.3,12.0,29.9,0.0,,28.0,2.4,,1008.0,
2023-05-18,18.9,12.9,25.1,0.0,,289.0,3.6,,1006.6,
2023-05-19,16.5,11.0,22.2,0.0,,281.0,3.8,,1008.2,
2023-05-20,16.3,12.0,21.9,3.9,,286.0,2.7,,1007.6,
2023-05-21,15.2,10.1,20.0,1.0,,302.0,2.4,,1008.3,
2023-05-22,16.5,11.4,21.7,1.3,,72.0,2.8,,1008.8,
2023-05-23,15.9,11.9,20.0,4.3,,226.0,3.1,,1010.1,
2023-05-24,17.1,9.6,23.9,0.0,,326.0,2.7,,1012.2,
2023-05-25,18.7,12.9,24.5,0.6,,56.0,2.8,,1010.5,
2023-05-26,18.5,12.0,24.6,0.0,,310.0,2.5,,1010.4,
2023-05-27,20.2,12.5,27.8,0.0,,40.0,2.2,,1009.4,
2023-05-28,17.4,14.2,20.0,5.4,,47.0,2.8,,1009.2,
2023-05-29,15.8,12.5,19.6,15.0,,42.0,2.4,,1009.5,
2023-05-30,16.5,11.5,21.4,3.2,,346.0,2.5,,1012.7,
2023-05-31,17.0,10.5,23.1,0.0,,304.0,3.0,,1012.6,
2023-06-01,18.2,12.4,23.7,0.0,,296.0,3.2,,1011.4,
2023-06-02,19.6,12.5,25.4,0.0,,319.0,2.5,,1011.8,
2023-06-03,21.5,15.4,27.9,0.0,,155.0,4.9,,1010.2,
2023-06-04,18.5,13.6,23.2,0.0,,295.0,4.5,,1011.2,
2023-06-05,18.6,13.3,23.8,0.0,,306.0,3.8,,1010.4,
2023-06-06,19.7,12.3,26.7,0.0,,300.0,2.8,,1009.6,
2023-06-07,22.2,13.7,30.0,0.0,,355.0,2.9,,1008.8,
2023-06-08,23.2,15.0,31.7,0.0,,291.0,3.0,,1008.1,
2023-06-09,22.6,17.9,28.1,3.0,,303.0,3.6,,1006.6,
2023-06-10,21.0,15.9,26.7,0.4,,310.0,3.4,,1004.1,
2023-06-11,20.3,14.7,25.8,0.1,,291.0,3.7,,1004.8,
2023-06-12,19.2,14.6,24.1,1.3,,296.0,3.8,,1004.5,
2023-06-13,18.3,13.7,22.8,0.3,,296.0,4.4,,1004.3,
2023-06-14,18.9,14.1,24.3,0.8,,295.0,3.9,,1005.7,
2023-06-15,20.0,14.6,25.0,0.3,,332.0,5.2,,1006.3,
2023-06-16,21.8,14.0,28.2,0.0,,322.0,6.2,,1006.0,
2023-06-17,22.8,16.0,29.6,0.0,,303.0,5.3,,1004.2,
2023-06-18,19.7,14.8,24.2,0.1,,313.0,6.9,,1004.8,
2023-06-19,19.0,15.0,23.9,0.0,,309.0,6.6,,1006.1,
