date,tavg,tmin,tmax,prcp,snow,wdir,wspd,wpgt,pres,tsun
2021-01-01,3.5,-3.4,11.0,,,40.0,5.4,16.7,1019.9,
2021-01-02,4.4,-1.2,11.1,,,358.0,6.3,14.8,1023.5,
2021-01-03,2.7,-3.4,8.5,,,6.0,5.1,13.0,1023.7,
2021-01-04,2.7,-3.7,10.1,,,189.0,5.4,14.8,1021.2,
2021-01-05,6.4,-0.4,13.0,,,164.0,7.6,20.4,1018.8,
2021-01-06,4.8,-0.3,11.0,0.0,,80.0,6.3,13.0,1023.5,
2021-01-07,3.6,-4.1,12.0,,,358.0,6.5,14.8,1022.0,
2021-01-08,7.0,-0.1,15.4,0.0,,242.0,10.2,22.2,1020.3,
2021-01-09,8.2,-0.9,15.0,,,226.0,11.5,24.1,1019.6,
2021-01-10,9.2,3.2,16.0,0.0,,200.0,9.9,20.4,1021.3,
2021-01-11,6.3,2.6,10.0,,,55.0,4.6,18.5,1023.1,
2021-01-12,11.1,4.5,19.2,,,174.0,16.7,42.6,1017.8,
2021-01-13,8.1,3.0,16.0,,,170.0,25.1,42.6,1004.8,
2021-01-14,1.8,0.0,4.0,,,67.0,7.3,24.1,1004.1,
2021-01-15,0.2,-3.0,6.0,,,53.0,14.2,33.3,1008.7,
2021-01-16,1.6,-2.1,4.0,1.8,,142.0,8.6,29.6,1006.6,
2021-01-17,-0.7,-4.0,5.0,1.0,,17.0,22.7,38.9,1002.5,
2021-01-18,-5.3,-7.8,-3.0,0.0,,19.0,14.0,31.5,1012.7,
2021-01-19,-6.2,-8.0,-3.7,1.0,20.0,4.0,16.8,27.8,1016.0,
2021-01-20,-5.6,-9.0,-2.0,0.0,10.0,343.0,14.1,29.6,1022.2,
2021-01-21,-4.5,-11.5,2.0,0.0,,94.0,5.9,16.7,1028.6,
2021-01-22,-1.1,-8.1,5.0,,,41.0,4.7,14.8,1027.2,
2021-01-23,0.3,-6.2,7.0,,,174.0,4.5,14.8,1022.3,
2021-01-24,2.7,-3.7,10.5,,,196.0,8.8,25.9,1018.6,
2021-01-25,2.4,-3.4,7.0,,,161.0,10.8,33.3,1017.0,
2021-01-26,5.8,0.5,11.0,0.0,,176.0,19.5,37.0,1016.3,
2021-01-27,6.1,3.0,13.0,,,176.0,32.6,59.3,1004.9,
2021-01-28,1.2,-2.0,4.5,,,242.0,15.4,35.2,1006.5,
2021-01-29,-1.1,-4.0,4.0,0.0,,330.0,10.7,24.1,1010.9,
2021-01-30,-0.6,-6.7,4.0,0.0,,191.0,7.2,25.9,1008.3,
2021-01-31,5.1,0.9,10.2,6.4,,186.0,10.0,20.4,1012.0,
2021-02-01,6.0,-0.5,14.3,0.0,,170.0,14.4,37.0,1018.3,
2021-02-02,5.9,0.2,12.0,,,189.0,9.1,24.1,1019.7,
2021-02-03,6.3,0.5,13.0,,,1.0,5.7,14.8,1018.3,
2021-02-04,7.0,-0.5,15.0,,,347.0,5.5,16.7,1017.4,
2021-02-05,7.0,1.6,14.1,,,355.0,9.5,24.1,1020.2,
2021-02-06,5.6,-1.6,15.0,,,15.0,4.7,14.8,1020.1,
2021-02-07,8.7,-1.7,19.0,,,6.0,7.1,18.5,1019.2,
2021-02-08,6.6,2.4,11.7,,,112.0,10.0,29.6,1018.8,
2021-02-09,9.0,2.7,18.0,,,202.0,14.5,31.5,1018.5,
2021-02-10,5.1,-1.1,14.0,,,229.0,10.2,25.9,1017.7,
2021-02-11,7.4,-2.1,18.0,,,132.0,10.6,27.8,1016.8,
2021-02-12,7.8,1.0,14.2,,,211.0,18.6,33.3,1013.8,
2021-02-13,4.9,-4.0,9.0,,,58.0,8.7,31.5,1019.2,
2021-02-14,6.4,-3.9,15.0,,,255.0,11.6,29.6,1014.7,
2021-02-15,0.3,-3.0,7.5,,,20.0,20.4,46.3,1010.5,
2021-02-16,-5.1,-6.0,-3.2,2.5,,351.0,29.8,48.2,1008.1,
2021-02-17,-7.1,-8.2,-5.0,7.6,10.0,345.0,31.1,53.7,1010.2,
2021-02-18,-7.4,-14.4,-3.0,1.3,99.0,144.0,8.7,25.9,1016.8,
2021-02-19,-3.9,-6.7,1.0,0.3,,28.0,10.5,24.1,1022.5,
2021-02-20,-3.8,-9.0,1.0,,,106.0,7.9,16.7,1025.1,
2021-02-21,-6.2,-9.6,2.0,,41.0,24.0,4.8,16.7,1026.9,
2021-02-22,-2.1,-9.5,5.0,,30.0,23.0,5.5,16.7,1028.6,
2021-02-23,1.6,-7.4,10.0,,20.0,14.0,7.4,22.2,1028.9,
2021-02-24,5.1,-3.5,13.1,,,334.0,11.0,29.6,1025.9,
2021-02-25,3.3,0.0,8.0,,,2.0,20.5,37.0,1027.0,
2021-02-26,3.5,-3.3,9.2,,,359.0,11.9,20.4,1025.5,
2021-02-27,4.7,-3.6,12.0,,,54.0,6.7,16.7,1019.6,
2021-02-28,4.0,-3.1,11.2,,,350.0,18.4,42.6,1018.3,
2021-03-01,1.3,-2.1,6.0,,,4.0,20.7,40.8,1021.2,
2021-03-02,1.3,-3.4,6.0,,,11.0,13.0,33.3,1021.1,
2021-03-03,3.9,-0.1,10.0,2.3,,354.0,23.3,35.2,1020.0,
2021-03-04,2.9,-2.0,9.0,0.0,,9.0,12.4,27.8,1020.8,
2021-03-05,3.8,-5.9,14.0,,,97.0,8.7,20.4,1020.8,
2021-03-06,6.6,-2.5,13.1,,,335.0,6.9,20.4,1020.8,
2021-03-07,4.1,-2.6,9.2,,,14.0,15.1,33.3,1018.1,
2021-03-08,3.4,-2.3,9.0,0.0,,7.0,11.3,24.1,1014.9,
2021-03-09,6.2,-2.1,11.2,,,56.0,8.2,18.5,1015.5,
2021-03-10,7.8,-0.7,16.2,,,38.0,6.3,20.4,1012.6,
2021-03-11,6.3,2.0,15.0,,,321.0,16.6,51.8,1005.5,
2021-03-12,0.7,-2.6,5.0,,,355.0,22.2,46.3,1016.7,
2021-03-13,5.3,-4.1,13.1,,,150.0,7.2,14.8,1016.9,
2021-03-14,8.6,2.4,14.0,,,23.0,7.1,16.7,1014.4,
2021-03-15,8.4,6.0,11.0,0.5,,162.0,10.6,25.9,1008.4,
2021-03-16,6.8,5.0,10.2,0.5,,209.0,22.8,53.7,1004.2,
2021-03-17,4.2,1.5,9.0,5.1,,241.0,11.7,37.0,1004.4,
2021-03-18,3.7,-1.2,9.0,4.3,,313.0,11.3,27.8,1010.7,
2021-03-19,6.1,-2.7,13.0,0.0,,203.0,12.6,35.2,1015.5,
2021-03-20,8.2,3.0,14.1,,,188.0,12.9,24.1,1015.9,
2021-03-21,10.4,0.3,20.0,,,211.0,10.3,25.9,1011.7,
2021-03-22,12.9,3.5,21.0,0.3,,219.0,15.8,46.3,1005.1,
2021-03-23,7.7,4.0,13.0,0.5,,251.0,14.4,38.9,999.9,
2021-03-24,-0.2,-1.0,1.1,22.6,10.0,345.0,22.2,50.0,1001.0,
2021-03-25,-1.2,-3.0,0.7,4.6,,354.0,19.4,42.6,1010.2,
2021-03-26,-0.6,-4.0,2.7,1.3,,348.0,23.8,38.9,1018.5,
2021-03-27,1.9,-2.7,5.0,0.0,,7.0,11.4,24.1,1026.0,
2021-03-28,3.5,-2.9,8.2,,,7.0,8.3,20.4,1029.6,
2021-03-29,6.2,-2.4,13.0,,,359.0,8.4,20.4,1028.0,
2021-03-30,3.5,0.5,6.0,,,6.0,17.3,31.5,1023.0,
2021-03-31,5.3,2.5,11.0,0.0,,357.0,19.0,29.6,1016.4,
2021-04-01,4.6,1.0,10.5,2.8,,17.0,9.7,20.4,1013.6,
2021-04-02,6.3,1.0,11.5,11.2,10.0,356.0,10.9,20.4,1015.6,
2021-04-03,8.9,0.3,15.6,0.0,,177.0,8.3,22.2,1017.5,
2021-04-04,10.2,0.1,16.7,,,217.0,16.5,37.0,1018.2,
2021-04-05,13.8,8.4,20.2,,,198.0,16.2,51.8,1014.3,
2021-04-06,13.7,5.6,23.0,,,191.0,14.6,37.0,1013.2,
2021-04-07,15.9,8.0,23.6,,,199.0,17.6,44.5,1010.2,
2021-04-08,11.2,1.9,21.0,,,330.0,12.5,35.2,1011.7,
2021-04-09,1.8,0.7,8.0,0.5,,358.0,27.1,48.2,1014.4,
2021-04-10,0.2,-2.5,3.0,7.9,10.0,357.0,35.7,63.0,1014.4,
2021-04-11,1.5,-1.2,5.0,0.5,20.0,336.0,25.9,44.5,1017.2,
2021-04-12,3.7,-0.3,7.0,0.0,,355.0,15.5,27.8,1019.8,
2021-04-13,6.9,2.6,11.0,,,106.0,6.5,14.8,1019.9,
2021-04-14,11.8,2.7,20.0,,,196.0,10.8,25.9,1018.0,
2021-04-15,14.4,8.8,20.5,,,238.0,14.5,27.8,1017.4,
2021-04-16,15.1,5.4,22.0,,,208.0,11.6,25.9,1016.7,
2021-04-17,17.0,9.6,24.0,,,172.0,12.8,31.5,1018.8,
2021-04-18,18.4,15.0,25.0,0.0,,108.0,13.1,29.6,1020.1,
2021-04-19,18.0,11.0,24.0,,,336.0,13.4,31.5,1015.9,
2021-04-20,14.4,8.0,21.0,,,17.0,20.9,35.2,1010.8,
2021-04-21,12.6,5.6,18.0,,,3.0,16.3,24.1,1016.4,
2021-04-22,13.4,8.6,18.1,,,5.0,15.9,31.5,1020.7,
2021-04-23,14.9,4.8,22.0,,,316.0,8.3,22.2,1021.3,
2021-04-24,16.3,9.6,21.0,,,4.0,13.6,22.2,1017.9,
2021-04-25,15.1,10.0,20.0,,,359.0,17.9,31.5,1011.9,
2021-04-26,11.7,7.0,16.5,,,350.0,25.6,37.0,1011.1,
2021-04-27,13.6,3.3,21.0,0.0,,47.0,8.8,27.8,1016.2,
2021-04-28,19.5,8.6,28.0,,,213.0,8.3,27.8,1018.0,
2021-04-29,21.3,14.7,27.0,,,220.0,14.1,42.6,1019.4,
2021-04-30,20.4,15.2,26.0,0.0,,308.0,16.5,37.0,1019.3,
2021-05-01,20.2,10.6,26.2,,,332.0,11.1,22.2,1020.4,
2021-05-02,23.5,11.7,30.0,,,309.0,9.5,24.1,1018.4,
2021-05-03,24.9,15.0,31.8,,,247.0,14.9,31.5,1016.1,
2021-05-04,19.7,15.2,24.0,,,354.0,17.6,37.0,1014.8,
2021-05-05,17.9,10.9,25.0,,,22.0,12.8,27.8,1013.3,
2021-05-06,16.6,11.3,22.0,0.0,,350.0,10.8,37.0,1014.3,
2021-05-07,17.5,8.0,24.0,0.0,,37.0,9.0,18.5,1018.5,
2021-05-08,19.7,10.2,29.0,,,232.0,10.0,31.5,1016.2,
2021-05-09,15.1,10.0,21.0,,,352.0,23.7,51.8,1018.0,
2021-05-10,11.4,5.4,17.0,,,7.0,18.2,37.0,1020.0,
2021-05-11,15.1,5.6,22.0,,,6.0,9.2,22.2,1015.2,
2021-05-12,18.7,5.7,28.0,,,257.0,11.2,27.8,1011.1,
2021-05-13,20.3,8.2,29.0,,,227.0,12.7,31.5,1012.1,
2021-05-14,20.4,8.3,30.0,,,230.0,12.8,35.2,1014.6,
2021-05-15,21.3,11.8,29.0,,,194.0,11.3,25.9,1013.5,
2021-05-16,19.4,12.8,25.2,,,197.0,11.6,31.5,1008.6,
2021-05-17,17.4,11.0,23.0,0.0,,32.0,11.4,25.9,1011.5,
2021-05-18,20.9,9.6,29.2,,,243.0,13.1,33.3,1013.0,
2021-05-19,18.9,10.7,25.2,,,22.0,13.4,22.2,1016.7,
2021-05-20,22.7,10.3,32.0,,,217.0,14.6,42.6,1012.4,
2021-05-21,19.7,8.7,29.0,,,210.0,20.2,57.4,1010.0,
2021-05-22,13.3,10.0,17.2,,,332.0,21.8,48.2,1015.3,
2021-05-23,15.7,7.9,22.0,0.0,,352.0,21.9,44.5,1017.9,
2021-05-24,18.3,9.4,24.2,,,17.0,17.9,42.6,1021.0,
2021-05-25,20.9,13.9,27.0,,,5.0,13.4,33.3,1020.1,
2021-05-26,23.4,12.8,30.0,,,31.0,9.5,25.9,1015.5,
2021-05-27,21.8,17.0,29.0,,,355.0,17.5,33.3,1013.3,
2021-05-28,21.9,11.3,30.0,,,252.0,9.8,35.2,1010.5,
2021-05-29,18.3,15.0,23.0,,,342.0,17.5,37.0,1012.7,
2021-05-30,19.9,11.3,26.1,,,249.0,13.5,25.9,1015.8,
2021-05-31,18.9,14.8,25.6,0.0,,332.0,11.6,35.2,1012.2,
2021-06-01,15.1,10.0,23.3,1.0,,345.0,13.9,33.3,1010.7,
2021-06-02,14.3,7.2,21.0,0.5,,336.0,14.9,37.0,1015.7,
2021-06-03,14.4,6.0,20.7,0.0,,23.0,13.3,33.3,1019.4,
2021-06-04,14.9,9.9,19.0,,,4.0,18.9,35.2,1020.7,
2021-06-05,15.1,10.3,19.0,,,0.0,18.8,38.9,1019.4,
2021-06-06,16.7,9.6,23.0,,,18.0,12.8,27.8,1018.1,
2021-06-07,19.7,8.9,27.3,,,4.0,10.7,27.8,1017.8,
2021-06-08,19.6,12.5,27.0,9.9,,340.0,11.3,37.0,1015.5,
2021-06-09,18.4,11.4,25.2,,,24.0,11.9,22.2,1013.2,
2021-06-10,16.6,12.9,22.0,,,355.0,10.9,31.5,1012.1,
2021-06-11,17.3,10.5,24.0,,,70.0,8.8,27.8,1013.6,
2021-06-12,17.7,11.0,23.5,,,333.0,8.0,27.8,1015.3,
2021-06-13,19.5,10.7,25.0,2.3,,357.0,6.7,22.2,1014.4,
2021-06-14,17.4,13.0,22.0,0.0,,359.0,16.2,33.3,1010.8,
2021-06-15,16.6,11.7,22.7,0.0,,11.0,12.4,37.0,1012.0,
2021-06-16,16.0,12.5,19.0,,,311.0,11.9,35.2,1012.1,
2021-06-17,17.8,9.7,22.1,,,6.0,12.0,29.6,1018.3,
2021-06-18,20.1,12.3,26.0,,,6.0,11.3,24.1,1017.7,
2021-06-19,21.8,14.9,29.0,,,1.0,13.6,27.8,1013.8,
2021-06-20,23.8,15.5,30.8,0.0,,18.0,13.0,31.5,1011.7,
2021-06-21,20.8,16.4,25.5,0.0,,345.0,12.6,29.6,1012.6,
2021-06-22,18.4,15.0,24.2,0.5,,88.0,9.2,29.6,1015.5,
2021-06-23,20.9,12.3,26.2,9.1,,340.0,11.2,33.3,1016.9,
2021-06-24,22.8,19.0,27.0,0.0,,350.0,19.7,38.9,1016.5,
2021-06-25,22.7,18.6,28.6,,,348.0,18.2,40.8,1015.9,
2021-06-26,22.4,15.0,27.6,,,335.0,14.6,42.6,1014.4,
2021-06-27,24.2,18.7,29.0,0.0,,358.0,16.0,38.9,1015.1,
2021-06-28,25.3,20.6,30.0,,,0.0,20.2,42.6,1016.4,
2021-06-29,24.2,18.5,29.2,,,11.0,19.3,38.9,1017.0,
2021-06-30,24.8,17.6,31.0,,,11.0,16.1,37.0,1017.0,
2021-07-01,26.8,17.9,33.1,,,353.0,12.5,25.9,1015.7,
2021-07-02,28.4,17.4,36.0,,,223.0,13.0,37.0,1011.7,
2021-07-03,22.2,17.0,30.0,,,28.0,15.9,44.5,1007.8,
2021-07-04,19.8,15.4,25.0,,,349.0,19.5,40.8,1011.3,
2021-07-05,20.8,12.9,26.0,,,22.0,11.2,27.8,1011.8,
2021-07-06,21.3,18.9,26.0,,,352.0,16.9,31.5,1011.3,
2021-07-07,21.8,14.0,28.0,,,3.0,13.5,33.3,1014.5,
2021-07-08,23.6,18.0,29.0,,,348.0,19.3,31.5,1016.0,
2021-07-09,23.6,18.4,29.0,0.0,,5.0,19.0,42.6,1015.3,
2021-07-10,23.4,18.7,28.0,,,9.0,19.7,42.6,1012.5,
2021-07-11,23.9,18.1,29.0,,,12.0,16.3,29.6,1012.3,
2021-07-12,26.1,17.6,31.0,,,9.0,9.2,24.1,1013.3,
2021-07-13,27.3,21.7,33.0,,,353.0,19.7,33.3,1013.5,
2021-07-14,25.7,19.7,30.5,,,346.0,23.5,38.9,1013.1,
2021-07-15,24.6,18.8,30.0,,,10.0,19.7,42.6,1013.2,
2021-07-16,24.9,19.2,30.5,,,17.0,16.3,33.3,1012.5,
2021-07-17,27.6,18.5,35.0,,,38.0,9.1,20.4,1010.0,
2021-07-18,27.9,18.8,35.0,,,121.0,11.2,27.8,1009.2,
2021-07-19,27.4,16.3,36.0,,,95.0,9.9,24.1,1011.3,
2021-07-20,28.4,18.7,35.0,,,165.0,9.4,27.8,1011.4,
2021-07-21,28.3,21.8,33.2,,,354.0,20.4,38.9,1011.6,
2021-07-22,24.7,21.1,29.0,,,348.0,27.9,42.6,1012.2,
2021-07-23,22.6,16.9,28.0,,,3.0,23.2,37.0,1012.2,
2021-07-24,22.2,17.4,27.0,,,14.0,21.5,37.0,1011.7,
2021-07-25,23.0,16.6,28.0,,,7.0,20.0,37.0,1014.0,
2021-07-26,24.4,18.1,29.5,,,352.0,20.8,38.9,1016.8,
2021-07-27,23.7,18.3,29.5,,,3.0,25.1,48.2,1018.6,
2021-07-28,23.1,16.8,29.2,,,13.0,22.3,48.2,1018.2,
2021-07-29,21.7,14.5,28.5,,,7.0,20.3,46.3,1015.9,
2021-07-30,24.0,16.8,30.8,,,10.0,21.1,44.5,1013.8,
2021-07-31,24.9,18.3,30.9,,,7.0,20.0,44.5,1013.7,
2021-08-01,25.9,20.6,32.0,,,11.0,18.9,40.8,1013.9,
2021-08-02,25.4,19.5,31.1,,,8.0,19.9,40.8,1014.6,
2021-08-03,26.8,20.5,33.6,,,8.0,15.4,40.8,1016.3,
2021-08-04,28.6,20.9,34.6,,,357.0,17.0,38.9,1017.3,
2021-08-05,28.2,23.4,33.7,,,11.0,16.6,35.2,1015.3,
2021-08-06,29.2,17.9,36.3,0.0,,323.0,10.7,25.9,1009.4,
2021-08-07,21.9,17.0,30.1,,,5.0,17.8,42.6,1008.3,
2021-08-08,21.1,16.3,26.8,,,336.0,22.9,40.8,1014.7,
2021-08-09,22.7,18.6,27.7,,,349.0,19.1,37.0,1017.8,
2021-08-10,22.2,17.7,27.5,,,3.0,20.6,48.2,1016.4,
2021-08-11,21.4,16.4,26.9,0.0,,352.0,21.3,50.0,1015.5,
2021-08-12,21.8,15.4,27.3,,,9.0,17.3,38.9,1016.5,
2021-08-13,22.3,17.9,27.3,0.0,,5.0,23.2,44.5,1019.0,
2021-08-14,21.1,16.7,26.3,,,12.0,21.6,44.5,1018.5,
2021-08-15,20.5,14.6,26.4,,,11.0,20.1,38.9,1017.2,
2021-08-16,21.3,13.4,27.3,,,7.0,12.5,31.5,1017.2,
2021-08-17,23.6,17.0,29.8,,,5.0,12.0,24.1,1015.1,
2021-08-18,25.1,15.7,31.5,,,351.0,8.7,24.1,1011.3,
2021-08-19,25.9,20.5,31.4,,,352.0,18.8,35.2,1011.0,
2021-08-20,24.1,17.9,29.6,,,3.0,20.0,31.5,1014.5,
2021-08-21,23.9,17.8,30.4,,,12.0,14.3,29.6,1015.7,
2021-08-22,24.4,18.5,30.6,,,7.0,15.9,33.3,1015.0,
2021-08-23,23.5,18.0,29.5,,,11.0,21.0,38.9,1015.8,
2021-08-24,22.6,16.1,28.9,,,8.0,13.8,31.5,1015.8,
2021-08-25,24.5,15.2,31.4,,,57.0,8.1,24.1,1015.2,
2021-08-26,25.3,15.3,33.3,,,86.0,7.6,18.5,1015.0,
2021-08-27,26.4,17.6,34.1,,,51.0,8.2,20.4,1014.9,
2021-08-28,26.9,18.4,35.7,,,97.0,8.7,24.1,1013.0,
2021-08-29,25.0,15.4,33.5,,,88.0,8.9,22.2,1009.9,
2021-08-30,26.1,17.0,33.0,,,200.0,8.1,25.9,1011.5,
2021-08-31,26.3,19.8,32.0,,,357.0,16.5,27.8,1014.1,
2021-09-01,25.1,19.0,31.8,0.0,,354.0,15.0,33.3,1012.8,
2021-09-02,20.7,18.0,25.7,0.0,,358.0,25.0,44.5,1015.3,
2021-09-03,18.0,13.2,23.5,,,8.0,21.6,42.6,1018.3,
2021-09-04,18.4,13.2,24.2,,,15.0,14.2,27.8,1015.9,
2021-09-05,20.3,11.3,27.0,,,12.0,11.3,27.8,1014.6,
2021-09-06,19.2,15.0,25.2,,,9.0,22.8,40.8,1016.9,
2021-09-07,17.4,11.4,23.9,,,9.0,20.5,33.3,1020.3,
2021-09-08,19.6,12.5,26.6,,,4.0,15.1,25.9,1019.5,
2021-09-09,22.4,14.3,29.0,,,14.0,10.9,20.4,1016.2,
2021-09-10,19.6,13.0,26.0,,,332.0,13.3,40.8,1014.5,
2021-09-11,17.3,12.0,22.0,5.8,,19.0,16.8,33.3,1015.8,
2021-09-12,19.4,11.5,26.0,0.0,,358.0,9.4,25.9,1013.9,
2021-09-13,21.5,14.3,27.0,,,3.0,10.7,24.1,1011.9,
2021-09-14,19.7,14.0,26.0,0.0,,359.0,19.1,33.3,1013.2,
2021-09-15,16.4,13.8,20.5,6.6,,0.0,12.7,31.5,1014.8,
2021-09-16,14.2,12.8,16.6,0.0,,352.0,18.1,40.8,1016.8,
2021-09-17,14.9,12.0,18.7,9.4,,3.0,14.8,31.5,1018.2,
2021-09-18,16.8,6.5,25.0,0.0,,121.0,5.1,16.7,1017.8,
2021-09-19,20.8,11.4,28.0,,,1.0,10.1,27.8,1018.4,
2021-09-20,20.8,11.8,29.0,,,334.0,7.4,22.2,1019.4,
2021-09-21,20.8,12.3,28.0,,,64.0,11.8,33.3,1018.0,
2021-09-22,15.6,13.0,19.0,,,357.0,20.0,40.8,1015.2,
2021-09-23,10.9,10.0,13.0,,,355.0,20.1,48.2,1012.2,
2021-09-24,10.5,7.0,15.0,,,354.0,15.5,38.9,1017.8,
2021-09-25,13.4,2.9,21.0,,,23.0,11.7,25.9,1021.7,
2021-09-26,16.3,8.3,22.0,,,357.0,10.2,20.4,1022.9,
2021-09-27,17.9,10.2,24.0,,,353.0,14.1,29.6,1017.4,
2021-09-28,17.3,9.0,24.0,,,2.0,11.9,27.8,1016.4,
2021-09-29,16.7,11.6,22.0,,,7.0,15.5,35.2,1017.1,
2021-09-30,14.1,12.0,17.0,,,355.0,19.7,44.5,1018.1,
2021-10-01,12.8,8.0,17.2,,,10.0,16.1,35.2,1019.5,
2021-10-02,14.2,8.8,19.0,,,4.0,14.1,29.6,1018.2,
2021-10-03,13.8,8.9,19.0,,,357.0,18.3,44.5,1019.7,
2021-10-04,13.3,6.0,18.2,,,5.0,10.6,27.8,1020.8,
2021-10-05,12.4,7.2,17.0,,,349.0,19.2,38.9,1019.8,
2021-10-06,11.0,6.4,16.0,,,0.0,14.2,33.3,1020.7,
2021-10-07,12.8,6.0,19.0,,,4.0,9.0,18.5,1020.1,
2021-10-08,13.4,3.1,21.1,,,48.0,7.6,16.7,1020.0,
2021-10-09,15.7,4.9,26.0,,,337.0,7.0,18.5,1019.2,
2021-10-10,16.8,8.2,25.0,,,2.0,7.9,20.4,1020.2,
2021-10-11,17.1,6.9,25.0,,,359.0,7.4,20.4,1018.7,
2021-10-12,17.7,8.6,24.2,,,229.0,9.0,24.1,1013.0,
2021-10-13,16.1,9.5,22.2,,,277.0,12.0,33.3,1014.0,
2021-10-14,14.8,10.6,21.0,,,36.0,9.9,22.2,1019.3,
2021-10-15,15.4,7.4,23.0,,,344.0,8.1,20.4,1019.5,
2021-10-16,14.7,6.3,22.2,,,225.0,14.3,42.6,1016.6,
2021-10-17,12.7,8.8,16.2,1.3,,24.0,10.1,29.6,1016.6,
2021-10-18,12.9,9.9,16.0,0.3,,8.0,14.7,29.6,1019.8,
2021-10-19,12.6,9.0,17.0,0.0,,357.0,18.8,38.9,1022.8,
2021-10-20,10.5,7.9,16.0,,,6.0,15.5,29.6,1025.5,
2021-10-21,9.5,2.3,17.0,,,37.0,6.8,16.7,1025.0,
2021-10-22,10.5,1.7,19.2,,,32.0,7.1,14.8,1023.3,
2021-10-23,11.6,2.2,20.2,,,68.0,5.5,16.7,1022.8,
2021-10-24,12.1,2.2,20.0,,,13.0,12.1,31.5,1021.7,
2021-10-25,9.0,7.0,12.0,,,359.0,22.5,42.6,1024.0,
2021-10-26,7.3,2.0,11.2,,,359.0,14.9,29.6,1023.0,
2021-10-27,10.8,4.6,16.2,,,10.0,8.6,20.4,1021.5,
2021-10-28,10.9,5.6,16.1,0.5,,358.0,11.7,27.8,1021.2,
2021-10-29,9.6,5.3,14.0,0.0,,0.0,16.9,37.0,1020.4,
2021-10-30,9.4,3.3,15.0,,,21.0,9.0,22.2,1021.3,
2021-10-31,11.7,7.7,18.0,0.5,,156.0,7.3,22.2,1020.4,
2021-11-01,12.4,6.9,18.0,1.0,,168.0,8.3,29.6,1016.9,
2021-11-02,12.5,9.0,17.0,2.0,,182.0,9.2,24.1,1015.7,
2021-11-03,13.0,7.5,19.0,0.8,,44.0,6.9,16.7,1021.0,
2021-11-04,13.0,4.6,20.0,0.0,,346.0,6.7,16.7,1025.6,
2021-11-05,12.3,5.2,18.5,,,345.0,8.5,16.7,1024.8,
2021-11-06,11.2,3.8,19.0,,,354.0,8.6,22.2,1024.9,
2021-11-07,12.2,3.0,19.0,,,347.0,11.1,27.8,1024.1,
2021-11-08,10.8,2.9,20.0,,,16.0,6.0,16.7,1021.8,
2021-11-09,10.8,1.8,21.0,,,19.0,4.6,14.8,1022.7,
2021-11-10,7.5,4.0,11.0,0.0,,1.0,25.8,57.4,1026.2,
2021-11-11,2.4,0.0,7.0,,,357.0,17.4,31.5,1026.4,
2021-11-12,1.5,-4.5,8.0,,,90.0,6.4,16.7,1023.1,
2021-11-13,2.8,-6.2,12.0,,,23.0,5.0,13.0,1023.2,
2021-11-14,5.3,-2.4,15.0,,,9.0,5.1,13.0,1022.3,
2021-11-15,8.2,0.0,16.0,,,5.0,7.5,18.5,1020.8,
2021-11-16,6.4,4.0,11.0,,,355.0,15.8,29.6,1021.5,
2021-11-17,5.2,-3.4,13.1,,,351.0,5.2,13.0,1020.7,
2021-11-18,7.8,0.0,16.0,,,8.0,5.2,14.8,1020.7,
2021-11-19,6.3,1.5,10.2,,,6.0,17.3,35.2,1016.8,
2021-11-20,5.9,4.4,7.5,0.0,,348.0,23.3,42.6,1014.6,
2021-11-21,5.2,1.7,10.2,,,357.0,10.8,27.8,1018.0,
2021-11-22,5.5,-2.0,14.0,,,142.0,5.8,16.7,1021.0,
2021-11-23,7.9,0.3,13.0,,,25.0,5.4,20.4,1021.5,
2021-11-24,8.3,5.0,13.0,0.0,,18.0,10.4,25.9,1017.7,
2021-11-25,6.1,4.6,7.0,6.4,,8.0,13.8,31.5,1018.8,
2021-11-26,7.3,5.6,10.2,0.0,,175.0,9.5,22.2,1019.9,
2021-11-27,10.3,5.2,13.8,,,161.0,14.1,35.2,1018.8,
2021-11-28,11.9,7.8,17.7,3.8,,189.0,17.6,35.2,1016.0,
2021-11-29,13.3,5.2,20.5,0.0,,191.0,17.4,46.3,1017.0,
2021-11-30,13.9,9.0,19.0,,,216.0,28.5,55.5,1008.6,
2021-12-01,5.1,2.0,9.0,0.0,,347.0,12.8,27.8,1012.2,
2021-12-02,1.8,-4.3,8.0,,,177.0,8.2,20.4,1018.5,
2021-12-03,3.6,-4.0,12.0,,,6.0,5.4,18.5,1020.3,
2021-12-04,5.3,1.5,9.0,,,92.0,6.0,20.4,1016.7,
2021-12-05,6.9,2.0,14.0,0.0,,161.0,6.7,16.7,1013.8,
2021-12-06,6.8,-1.3,15.0,,,177.0,11.6,25.9,1018.3,
2021-12-07,9.3,4.2,14.0,,,182.0,28.6,57.4,1010.3,
2021-12-08,5.4,3.0,8.2,7.1,10.0,188.0,10.1,31.5,1007.2,
2021-12-09,4.3,-0.8,11.0,2.3,,126.0,7.1,18.5,1018.8,
2021-12-10,4.8,-2.0,11.2,0.0,,148.0,10.3,20.4,1021.6,
2021-12-11,7.2,1.3,14.0,,,189.0,10.7,18.5,1020.5,
2021-12-12,8.1,1.3,16.0,,,179.0,12.4,27.8,1020.5,
2021-12-13,8.0,0.7,17.5,,,196.0,9.9,25.9,1016.8,
2021-12-14,5.5,2.0,8.0,,,348.0,8.8,27.8,1012.3,
2021-12-15,3.9,2.0,7.3,,10.0,9.0,10.6,27.8,1012.0,
2021-12-16,1.8,1.5,2.5,2.3,,15.0,11.2,27.8,1015.8,
2021-12-17,0.1,-0.6,1.2,2.3,,357.0,14.2,31.5,1013.8,
2021-12-18,0.5,-1.4,2.6,3.3,20.0,136.0,6.1,18.5,1011.3,
2021-12-19,-0.3,-2.0,1.8,29.7,30.0,4.0,7.5,25.9,1006.8,
2021-12-20,-2.4,-6.0,0.0,14.2,231.0,14.0,10.8,16.7,1008.2,
2021-12-21,-3.4,-5.0,-1.9,0.3,,67.0,7.7,24.1,1015.5,
2021-12-22,-9.2,-15.3,-2.8,0.3,170.0,355.0,7.1,18.5,1021.4,
2021-12-23,-10.4,-14.0,-2.3,0.0,150.0,319.0,6.9,18.5,1020.9,
2021-12-24,-13.9,-18.9,-7.7,,140.0,22.0,5.2,14.8,1020.6,
2021-12-25,-10.8,-17.1,-6.0,,140.0,9.0,3.7,11.1,1021.6,
2021-12-26,-3.4,-11.8,-0.9,,130.0,34.0,4.7,13.0,1022.9,
2021-12-27,1.7,-2.3,5.2,119.9,,2.0,3.8,13.0,1022.0,
2021-12-28,1.3,0.0,4.0,0.3,89.0,18.0,5.5,13.0,1017.8,
2021-12-29,-0.4,-2.0,1.0,0.0,71.0,13.0,4.0,13.0,1015.0,
2021-12-30,2.6,-2.2,5.5,,61.0,203.0,6.4,24.1,1013.6,
2021-12-31,2.3,1.0,5.7,,41.0,309.0,4.4,14.8,1018.4,
2022-01-01,0.3,-4.9,4.5,,30.0,38.0,4.9,13.0,1017.9,
2022-01-02,4.7,2.0,8.0,0.3,,326.0,16.1,40.8,1019.0,
2022-01-03,1.3,-2.8,6.0,0.0,,184.0,8.8,25.9,1019.6,
2022-01-04,2.9,-1.8,10.1,,,19.0,7.1,20.4,1017.4,
2022-01-05,4.5,-3.4,13.0,,,107.0,8.0,20.4,1018.2,
2022-01-06,6.6,-0.1,14.0,,,115.0,7.0,18.5,1018.7,
2022-01-07,7.2,3.7,12.0,,,58.0,6.7,14.8,1018.7,
2022-01-08,7.2,3.6,12.2,,,147.0,12.6,27.8,1016.4,
2022-01-09,6.6,1.5,12.2,1.3,,178.0,15.7,29.6,1009.5,
2022-01-10,5.1,1.2,9.2,8.4,10.0,182.0,13.1,33.3,1005.2,
2022-01-11,5.2,2.2,8.1,0.8,,160.0,14.5,35.2,1010.0,
2022-01-12,3.7,2.5,6.0,4.6,,235.0,14.0,25.9,1011.3,
2022-01-13,-1.5,-2.0,2.3,9.1,,342.0,30.2,48.2,1017.0,
2022-01-14,-5.4,-6.0,-2.6,0.0,,26.0,15.5,42.6,1018.3,
2022-01-15,-4.1,-9.3,2.2,,,49.0,10.5,42.6,1013.1,
2022-01-16,-3.2,-5.0,-1.0,,,344.0,21.9,44.5,1018.4,
2022-01-17,-3.8,-8.4,0.2,,,172.0,10.6,22.2,1020.5,
2022-01-18,-3.4,-6.1,0.7,,,69.0,16.6,44.5,1015.0,
2022-01-19,-5.3,-6.7,-3.0,,10.0,328.0,35.6,53.7,1018.5,
2022-01-20,-7.2,-11.6,-3.4,0.0,,153.0,12.6,25.9,1024.0,
2022-01-21,-3.8,-12.4,2.0,,,101.0,7.6,24.1,1021.2,
2022-01-22,1.3,-2.0,3.6,,,192.0,22.9,38.9,1010.1,
2022-01-23,-5.6,-7.0,-3.3,20.3,20.0,316.0,18.6,44.5,1006.8,
2022-01-24,-7.9,-11.0,-5.3,1.5,,168.0,9.2,20.4,1016.7,
2022-01-25,-8.8,-12.0,-6.7,1.5,,8.0,10.9,33.3,1017.0,
2022-01-26,-7.2,-12.2,-5.5,11.9,,345.0,13.9,33.3,1012.9,
2022-01-27,-8.1,-14.0,-3.6,0.3,,345.0,14.8,31.5,1018.2,
2022-01-28,-17.3,-21.0,-13.0,0.0,259.0,100.0,4.7,13.0,1020.4,
2022-01-29,-16.7,-22.1,-13.0,,249.0,101.0,3.9,14.8,1021.6,
2022-01-30,-8.7,-15.3,-3.5,,239.0,85.0,3.7,16.7,1016.5,
2022-01-31,-1.1,-7.7,0.0,6.6,10.0,5.0,12.6,25.9,1010.8,
2022-02-01,-0.3,-2.5,2.0,2.3,269.0,166.0,8.5,20.4,1013.0,
2022-02-02,2.9,-0.5,4.0,0.0,231.0,176.0,22.2,38.9,1012.5,
2022-02-03,3.4,0.5,6.0,,170.0,187.0,16.7,31.5,1007.3,
2022-02-04,0.1,-2.0,3.0,,,337.0,25.9,48.2,1011.3,
2022-02-05,-3.5,-6.7,-1.0,,89.0,102.0,12.1,22.2,1018.8,
2022-02-06,-2.8,-7.2,2.0,,,28.0,5.1,14.8,1021.2,
2022-02-07,-1.8,-8.2,2.0,,51.0,106.0,6.5,20.4,1018.7,
2022-02-08,4.8,-1.7,9.0,,41.0,190.0,21.1,50.0,1009.4,
2022-02-09,-0.2,-1.0,4.2,24.9,30.0,331.0,28.1,53.7,1008.5,
2022-02-10,-1.3,-3.0,0.9,3.3,,334.0,33.5,53.7,1019.4,
2022-02-11,-2.9,-7.2,1.9,0.0,119.0,122.0,8.0,18.5,1026.3,
2022-02-12,-3.4,-9.3,2.9,,99.0,51.0,3.9,16.7,1026.8,
2022-02-13,-2.4,-7.1,3.9,,61.0,58.0,5.1,16.7,1022.7,
2022-02-14,-0.9,-5.1,2.0,,51.0,151.0,6.6,14.8,1019.5,
2022-02-15,0.1,-0.3,1.6,,30.0,136.0,7.9,14.8,1021.5,
2022-02-16,-0.7,-4.3,3.8,,20.0,119.0,7.2,16.7,1022.5,
2022-02-17,-1.3,-5.5,3.0,,10.0,147.0,6.8,14.8,1016.3,
2022-02-18,1.4,-4.0,7.0,,,35.0,7.8,33.3,1011.5,
2022-02-19,1.7,-0.3,4.0,2.5,,347.0,25.2,38.9,1018.3,
2022-02-20,2.7,-1.2,7.0,0.0,,197.0,9.2,16.7,1021.8,
2022-02-21,7.2,1.2,13.0,,,156.0,7.0,16.7,1016.4,
2022-02-22,7.2,4.0,12.0,0.0,,174.0,11.9,33.3,1012.6,
2022-02-23,7.7,-0.5,14.0,0.5,,198.0,8.3,25.9,1014.7,
2022-02-24,6.2,4.0,10.0,5.6,10.0,308.0,11.6,20.4,1009.5,
2022-02-25,3.2,-1.0,7.0,7.1,,2.0,14.9,33.3,1008.8,
2022-02-26,3.7,1.0,6.0,0.0,,94.0,10.4,25.9,1017.3,
2022-02-27,6.6,0.2,12.0,,,183.0,9.9,24.1,1019.3,
2022-02-28,6.7,3.7,12.0,0.3,,179.0,15.1,37.0,1015.2,
2022-03-01,3.6,0.0,6.0,2.3,,79.0,9.8,25.9,1016.4,
2022-03-02,1.4,0.0,5.0,3.0,,2.0,16.0,29.6,1009.5,
2022-03-03,-0.6,-1.0,2.7,15.0,10.0,326.0,27.6,46.3,1003.5,
2022-03-04,-1.2,-5.2,2.0,0.0,,178.0,13.5,25.9,1014.3,
2022-03-05,2.7,-4.1,8.0,,,95.0,7.6,18.5,1015.0,
2022-03-06,3.7,-0.2,8.1,,,24.0,7.7,16.7,1012.1,
2022-03-07,5.9,-2.3,13.2,,,228.0,12.9,27.8,1009.7,
2022-03-08,4.8,1.0,8.2,0.0,,93.0,11.8,24.1,1008.8,
2022-03-09,1.2,1.0,5.0,,,2.0,21.4,33.3,1006.2,
2022-03-10,-1.4,-2.4,0.2,3.8,,346.0,20.6,42.6,1004.8,
2022-03-11,-5.0,-6.0,-2.8,15.7,20.0,332.0,40.8,55.5,1007.8,
2022-03-12,-6.2,-8.8,-4.0,0.3,140.0,346.0,21.5,33.3,1016.5,
2022-03-13,-5.3,-8.1,-2.9,0.5,,342.0,28.4,50.0,1018.3,
2022-03-14,-3.8,-7.1,-1.0,59.9,,345.0,16.5,37.0,1024.8,
2022-03-15,-3.4,-5.0,-1.0,0.0,,348.0,21.0,46.3,1027.5,
2022-03-16,-1.7,-7.5,2.0,20.1,,143.0,8.8,16.7,1024.5,
2022-03-17,1.0,-2.5,4.0,0.0,10.0,22.0,11.5,24.1,1020.1,
2022-03-18,-3.1,-5.0,0.5,9.9,,338.0,27.8,44.5,1022.8,
2022-03-19,-5.6,-9.0,-2.0,9.9,,346.0,29.1,51.8,1022.7,
2022-03-20,-2.6,-7.4,1.1,0.0,,342.0,24.3,40.8,1022.4,
2022-03-21,-1.9,-5.0,1.0,1.5,,2.0,20.6,38.9,1020.5,
2022-03-22,-1.2,-4.0,2.0,0.3,,6.0,14.7,27.8,1016.5,
2022-03-23,0.2,-3.2,4.0,0.0,,359.0,14.4,24.1,1014.9,
2022-03-24,0.9,-2.3,4.6,0.0,,345.0,19.2,38.9,1013.5,
2022-03-25,4.1,-3.1,9.0,,,339.0,14.9,25.9,1016.6,
2022-03-26,2.9,1.0,5.0,,,315.0,20.3,40.8,1022.2,
2022-03-27,3.9,-4.7,10.0,0.0,,319.0,9.6,16.7,1026.3,
2022-03-28,6.9,-2.2,14.0,,,47.0,5.6,18.5,1028.2,
2022-03-29,6.1,-0.8,13.0,,,172.0,10.2,25.9,1021.0,
2022-03-30,8.7,3.8,15.0,0.5,,153.0,8.7,16.7,1017.0,
2022-03-31,9.7,0.3,18.0,0.0,,175.0,10.1,29.6,1018.7,
2022-04-01,14.0,3.0,26.1,,,202.0,14.4,35.2,1017.0,
2022-04-02,16.7,7.1,24.0,,,196.0,22.6,44.5,1012.4,
2022-04-03,15.5,7.3,21.0,,,238.0,16.0,44.5,1014.5,
2022-04-04,12.9,4.5,20.0,,,338.0,13.8,24.1,1018.2,
2022-04-05,16.0,6.8,23.0,,,217.0,23.4,51.8,1013.5,
2022-04-06,14.3,9.2,20.2,,,14.0,16.9,33.3,1011.1,
2022-04-07,12.9,4.8,17.6,0.0,,194.0,11.5,31.5,1011.8,
2022-04-08,12.7,10.5,17.7,0.0,,308.0,18.9,38.9,1008.5,
2022-04-09,13.9,1.5,23.4,0.0,,198.0,12.4,31.5,1014.2,
2022-04-10,15.6,10.0,22.5,0.0,,216.0,16.5,29.6,1011.2,
2022-04-11,8.6,3.0,16.9,1.0,,230.0,20.2,46.3,1006.9,
2022-04-12,4.2,2.0,8.7,1.3,,332.0,21.4,46.3,1015.3,
2022-04-13,3.7,-2.3,9.4,0.0,,10.0,13.8,27.8,1018.0,
2022-04-14,6.4,-3.0,13.4,0.0,,16.0,7.8,20.4,1020.0,
2022-04-15,9.9,0.0,17.2,0.0,,3.0,9.8,24.1,1019.6,
2022-04-16,12.4,3.0,19.7,0.0,,76.0,7.8,18.5,1017.0,
2022-04-17,12.3,5.2,17.1,0.0,,198.0,7.4,24.1,1012.8,
2022-04-18,18.9,9.0,25.7,0.0,,203.0,27.4,59.3,1004.8,
2022-04-19,11.4,4.8,19.1,0.0,,264.0,14.7,42.6,1008.0,
2022-04-20,9.9,4.0,16.1,0.0,,1.0,11.3,22.2,1015.0,
2022-04-21,11.9,3.0,18.5,0.0,,11.0,9.2,24.1,1016.5,
2022-04-22,14.3,5.3,21.6,0.0,,29.0,8.6,18.5,1018.1,
2022-04-23,17.3,5.5,26.0,0.0,,66.0,7.9,22.2,1013.5,
2022-04-24,18.9,8.8,27.0,0.0,,98.0,7.3,18.5,1011.9,
2022-04-25,18.4,6.8,28.6,0.0,,185.0,10.7,29.6,1011.8,
2022-04-26,17.6,7.6,25.6,0.0,,88.0,8.9,20.4,1012.8,
2022-04-27,17.2,9.0,24.6,0.0,,39.0,10.2,20.4,1013.1,
2022-04-28,18.3,10.2,24.7,0.0,,357.0,17.2,33.3,1013.9,
2022-04-29,19.4,12.6,25.7,0.0,,6.0,11.2,24.1,1015.0,
2022-04-30,17.1,12.9,23.3,0.0,,354.0,24.8,37.0,1012.2,
2022-05-01,12.6,9.0,16.3,0.8,,355.0,20.2,37.0,1014.3,
2022-05-02,12.5,7.2,16.5,0.0,,318.0,8.6,20.4,1014.2,
2022-05-03,14.9,11.0,20.3,6.6,,10.0,9.3,22.2,1010.9,
2022-05-04,11.4,9.6,16.4,0.5,,4.0,20.7,38.9,1011.1,
2022-05-05,8.9,6.7,12.0,5.8,,340.0,26.7,50.0,1015.3,
2022-05-06,8.8,5.0,12.6,0.0,,342.0,24.2,53.7,1017.1,
2022-05-07,9.6,6.8,13.5,0.5,,340.0,19.3,35.2,1017.5,
2022-05-08,11.4,5.0,17.2,0.0,,10.0,16.6,20.4,1019.3,
2022-05-09,13.2,4.9,19.4,0.0,,359.0,10.6,24.1,1018.1,
2022-05-10,13.9,7.7,19.7,0.0,,9.0,11.5,24.1,1017.8,
2022-05-11,14.2,6.9,21.0,0.0,,342.0,10.4,22.2,1017.3,
2022-05-12,14.7,6.9,21.0,0.0,,18.0,10.9,31.5,1021.4,
2022-05-13,16.3,7.0,22.5,0.0,,190.0,7.4,18.5,1021.3,
2022-05-14,17.3,8.9,24.9,0.5,,76.0,9.3,29.6,1017.1,
2022-05-15,13.8,10.0,19.1,2.5,,355.0,14.8,31.5,1016.8,
2022-05-16,15.8,7.2,21.8,0.8,,348.0,8.4,22.2,1020.3,
2022-05-17,14.5,11.0,20.5,0.5,,5.0,9.3,27.8,1018.5,
2022-05-18,17.8,7.0,25.1,9.4,,92.0,9.3,22.2,1015.6,
2022-05-19,9.8,8.0,18.8,0.0,,351.0,25.1,44.5,1019.4,
2022-05-20,11.2,5.9,16.6,1.0,,3.0,15.5,35.2,1023.6,
2022-05-21,15.1,5.4,22.5,0.0,,359.0,8.8,20.4,1019.9,
2022-05-22,17.4,7.5,25.0,0.0,,344.0,9.8,22.2,1010.6,
2022-05-23,17.4,14.0,23.2,0.0,,319.0,25.9,46.3,1009.6,
2022-05-24,15.7,7.8,21.6,0.0,,342.0,11.3,33.3,1014.7,
2022-05-25,18.1,7.6,24.0,0.0,,343.0,12.3,31.5,1018.7,
2022-05-26,21.8,12.8,28.0,0.0,,329.0,13.7,33.3,1020.8,
2022-05-27,21.3,18.0,27.1,0.0,,338.0,18.3,33.3,1019.3,
2022-05-28,21.4,14.1,26.8,0.0,,344.0,8.6,29.6,1015.5,
2022-05-29,22.3,12.6,29.5,0.0,,69.0,7.9,29.6,1016.3,
2022-05-30,23.2,13.0,31.5,0.0,,205.0,11.0,40.8,1015.8,
2022-05-31,23.4,12.4,30.5,0.0,,8.0,9.7,38.9,1014.7,
2022-06-01,23.6,15.0,30.0,0.0,,9.0,17.5,33.3,1013.4,
2022-06-02,23.7,18.3,30.0,0.0,,5.0,21.7,27.8,1011.9,
2022-06-03,25.1,20.1,31.0,0.0,,15.0,14.2,,1012.0,
2022-06-04,22.7,15.6,29.0,0.0,,331.0,10.6,,1013.3,
2022-06-05,22.4,14.9,28.6,0.0,,353.0,18.8,,1013.4,
2022-06-06,21.4,17.0,27.7,0.0,,352.0,14.2,,1012.6,
2022-06-07,19.2,16.0,25.6,4.1,,1.0,13.8,,1011.3,
2022-06-08,18.4,12.8,26.5,1.0,,182.0,6.4,,1010.9,
2022-06-09,20.6,12.4,27.3,0.0,,142.0,8.4,,1012.3,
2022-06-10,22.3,14.2,29.0,0.0,,298.0,9.1,,1013.6,
2022-06-11,23.2,13.5,32.0,0.0,,167.0,16.1,,1011.7,
2022-06-12,18.4,15.5,22.8,0.0,,321.0,13.9,,1006.8,
2022-06-13,18.6,13.8,24.4,0.8,,357.0,13.0,,1008.6,
2022-06-14,17.2,14.0,24.3,1.3,,359.0,10.2,,1012.5,
2022-06-15,20.3,13.4,26.0,0.5,,2.0,15.7,35.2,1017.3,
2022-06-16,21.4,15.4,27.4,0.0,,12.0,15.5,31.5,1017.5,
2022-06-17,22.1,14.9,28.7,0.0,,9.0,13.6,29.6,1016.0,
2022-06-18,22.9,16.4,29.3,0.0,,22.0,14.8,31.5,1013.8,
2022-06-19,22.4,16.4,28.9,0.0,,0.0,21.9,35.2,1014.9,
2022-06-20,24.1,17.3,30.5,0.0,,69.0,12.1,27.8,1013.8,
2022-06-21,19.8,15.5,24.3,0.5,,335.0,19.8,46.3,1009.2,
2022-06-22,21.6,15.2,27.5,0.0,,331.0,25.6,50.0,1011.0,
2022-06-23,21.8,14.4,26.8,0.0,,338.0,15.5,42.6,1013.9,
2022-06-24,20.0,17.7,24.1,0.0,,335.0,20.1,38.9,1012.1,
2022-06-25,18.6,14.0,24.4,0.0,,334.0,26.6,46.3,1013.5,
2022-06-26,18.7,12.3,24.4,0.0,,342.0,19.6,44.5,1014.1,
2022-06-27,19.1,14.0,25.1,0.0,,343.0,20.5,37.0,1014.5,
2022-06-28,18.9,16.0,24.2,0.0,,82.0,12.0,29.6,1013.0,
2022-06-29,19.3,14.0,24.8,0.0,,1.0,12.1,24.1,1013.8,
2022-06-30,20.8,15.6,28.0,0.8,,354.0,16.7,33.3,1012.8,
2022-07-01,20.3,13.7,26.2,1.8,,355.0,17.4,46.3,1013.8,
2022-07-02,21.3,16.0,28.1,0.0,,12.0,24.2,46.3,1016.0,
2022-07-03,20.5,14.8,27.4,0.0,,9.0,23.2,46.3,1016.3,
2022-07-04,20.2,12.4,27.7,0.0,,8.0,20.7,42.6,1015.0,
2022-07-05,21.3,13.7,29.1,0.0,,5.0,19.4,38.9,1013.8,
2022-07-06,22.6,14.3,30.0,0.0,,3.0,18.0,33.3,1011.7,
2022-07-07,24.7,13.7,31.1,0.0,,10.0,12.8,29.6,1011.6,
2022-07-08,25.7,19.5,31.6,0.0,,33.0,14.3,29.6,1012.3,
2022-07-09,25.8,19.5,32.8,0.0,,342.0,13.0,29.6,1008.3,
2022-07-10,20.4,16.2,27.4,6.1,,353.0,16.3,42.6,1007.2,
2022-07-11,20.9,14.0,26.5,0.0,,350.0,18.2,31.5,1014.0,
2022-07-12,22.7,17.4,29.2,0.0,,10.0,16.7,31.5,1016.3,
2022-07-13,23.3,16.5,30.0,0.0,,18.0,13.4,29.6,1015.0,
2022-07-14,22.2,17.3,28.3,0.0,,4.0,26.4,44.5,1015.2,
2022-07-15,20.9,13.8,28.1,0.0,,1.0,18.3,35.2,1013.3,
2022-07-16,22.6,15.8,29.0,0.0,,9.0,17.0,38.9,1014.8,
2022-07-17,22.6,16.5,28.2,0.0,,10.0,22.4,48.2,1016.6,
2022-07-18,21.9,16.9,27.5,0.0,,14.0,25.7,50.0,1016.8,
2022-07-19,20.6,16.8,26.7,0.0,,9.0,20.9,38.9,1016.9,
2022-07-20,20.6,14.0,27.4,0.0,,9.0,22.8,42.6,1016.0,
2022-07-21,20.7,14.6,27.0,0.0,,5.0,20.4,42.6,1015.0,
2022-07-22,22.9,16.5,28.5,0.0,,0.0,16.3,35.2,1015.7,
2022-07-23,23.4,18.4,29.7,0.0,,353.0,23.7,48.2,1016.3,
2022-07-24,21.4,16.0,27.3,0.0,,5.0,20.1,44.5,1016.0,
2022-07-25,21.7,14.6,28.0,0.0,,9.0,16.5,42.6,1014.0,
2022-07-26,22.9,15.1,28.8,0.0,,15.0,15.6,33.3,1012.9,
2022-07-27,24.5,16.1,31.0,0.0,,8.0,13.1,29.6,1012.8,
2022-07-28,25.9,17.5,32.5,0.0,,0.0,13.2,29.6,1013.9,
2022-07-29,27.1,20.5,34.4,0.0,,0.0,16.9,31.5,1013.6,
2022-07-30,27.3,20.3,34.0,0.0,,8.0,16.5,37.0,1012.8,
2022-07-31,27.7,18.4,34.8,0.0,,36.0,11.5,25.9,1010.3,
2022-08-01,27.4,19.9,33.2,0.0,,14.0,15.6,33.3,1009.9,
2022-08-02,27.2,21.6,32.7,0.0,,5.0,20.0,33.3,1011.3,
2022-08-03,27.3,21.6,33.3,0.0,,10.0,21.2,35.2,1012.9,
2022-08-04,28.3,21.6,35.3,0.0,,9.0,16.0,29.6,1013.3,
2022-08-05,28.2,22.4,35.0,0.0,,8.0,19.1,31.5,1012.1,
2022-08-06,27.8,22.8,34.9,0.0,,6.0,20.8,37.0,1009.1,
2022-08-07,26.3,20.7,31.7,0.0,,12.0,23.1,42.6,1008.9,
2022-08-08,26.1,20.7,31.9,0.0,,9.0,20.1,40.8,1011.3,
2022-08-09,26.3,20.5,32.0,0.0,,12.0,17.4,35.2,1011.4,
2022-08-10,25.3,22.0,31.1,0.0,,355.0,21.9,40.8,1010.2,
2022-08-11,23.7,18.0,29.0,0.0,,352.0,23.3,42.6,1012.2,
2022-08-12,25.0,20.0,30.8,0.0,,5.0,20.6,35.2,1013.5,
2022-08-13,25.9,19.0,32.3,0.0,,10.0,13.3,27.8,1010.6,
2022-08-14,26.1,19.6,33.2,0.0,,25.0,12.5,29.6,1008.5,
2022-08-15,24.9,16.7,31.9,0.0,,224.0,10.9,31.5,1009.3,
2022-08-16,24.6,17.5,30.7,0.0,,17.0,11.5,29.6,1014.9,
2022-08-17,26.0,18.4,31.9,0.0,,14.0,12.7,25.9,1013.3,
2022-08-18,26.4,21.3,31.7,0.0,,1.0,20.1,38.9,1012.2,
2022-08-19,25.5,20.8,30.6,0.0,,351.0,22.4,37.0,1011.5,
2022-08-20,25.1,19.1,31.0,0.0,,5.0,15.2,31.5,1011.5,
2022-08-21,25.7,18.5,32.9,2.0,,188.0,9.1,22.2,1009.6,
2022-08-22,25.7,16.4,33.7,0.0,,152.0,8.1,22.2,1009.9,
2022-08-23,26.6,17.0,34.6,0.0,,94.0,8.4,24.1,1012.0,
2022-08-24,26.3,17.7,33.9,0.0,,177.0,11.5,27.8,1011.0,
2022-08-25,23.8,14.5,30.5,0.0,,109.0,12.0,27.8,1011.1,
2022-08-26,23.7,16.4,30.2,0.0,,145.0,9.1,27.8,1010.9,
2022-08-27,22.9,15.2,30.1,0.0,,62.0,6.7,24.1,1013.0,
2022-08-28,25.2,15.9,32.4,0.0,,45.0,8.2,25.9,1014.4,
2022-08-29,26.4,20.9,33.4,0.0,,20.0,13.7,25.9,1015.9,
2022-08-30,25.0,14.0,34.9,0.0,,103.0,10.1,31.5,1014.4,
2022-08-31,24.2,11.5,34.3,0.0,,209.0,10.5,33.3,1014.1,
2022-09-01,24.2,13.8,33.2,0.0,,20.0,7.9,25.9,1012.3,
2022-09-02,24.1,14.0,33.0,0.0,,164.0,7.3,24.1,1013.5,
2022-09-03,24.7,12.4,33.0,0.0,,7.0,9.8,29.6,1014.1,
2022-09-04,24.6,19.0,30.0,0.0,,353.0,19.9,31.5,1017.6,
2022-09-05,22.3,18.0,28.1,3.0,,5.0,21.6,40.8,1016.2,
2022-09-06,18.4,15.0,23.7,0.8,,357.0,22.4,42.6,1016.2,
2022-09-07,16.7,11.0,22.2,0.0,,5.0,20.5,38.9,1018.3,
2022-09-08,17.5,11.3,24.1,0.0,,8.0,14.4,31.5,1019.3,
2022-09-09,20.2,12.4,27.1,0.0,,0.0,12.3,27.8,1019.3,
2022-09-10,21.9,13.9,29.8,0.0,,357.0,8.1,20.4,1017.4,
2022-09-11,22.8,11.6,32.3,0.0,,131.0,6.9,20.4,1013.8,
2022-09-12,23.2,15.8,32.0,0.0,,324.0,14.8,40.8,1009.1,
2022-09-13,18.9,14.0,24.4,0.0,,7.0,20.6,33.3,1011.0,
2022-09-14,17.7,11.8,24.3,0.0,,13.0,13.6,29.6,1016.3,
2022-09-15,19.6,10.3,27.5,0.0,,197.0,6.5,18.5,1018.9,
2022-09-16,22.1,11.7,31.0,0.0,,56.0,6.2,18.5,1016.9,
2022-09-17,24.2,13.1,33.0,0.0,,247.0,6.4,20.4,1013.0,
2022-09-18,24.7,13.3,33.4,0.0,,326.0,10.4,29.6,1011.6,
2022-09-19,22.5,17.5,27.5,0.0,,7.0,13.6,25.9,1013.6,
2022-09-20,21.6,15.9,27.6,0.0,,21.0,12.5,33.3,1012.0,
2022-09-21,17.6,14.0,23.6,0.3,,350.0,20.7,35.2,1011.3,
2022-09-22,14.4,9.0,21.8,1.0,,4.0,15.2,48.2,1010.8,
2022-09-23,12.8,7.0,17.4,4.3,,36.0,13.0,40.8,1015.3,
2022-09-24,14.3,11.9,19.5,0.3,,8.0,14.3,31.5,1019.1,
2022-09-25,14.3,4.7,23.0,0.0,,247.0,6.4,18.5,1022.1,
2022-09-26,16.0,4.7,26.3,0.0,,73.0,5.9,18.5,1019.9,
2022-09-27,18.8,7.3,30.0,0.0,,219.0,9.9,31.5,1014.8,
2022-09-28,20.3,11.4,28.3,0.0,,261.0,13.8,35.2,1014.3,
2022-09-29,21.2,13.0,28.8,0.0,,241.0,11.3,31.5,1016.8,
2022-09-30,21.7,12.5,30.7,0.0,,359.0,9.8,24.1,1021.4,
2022-10-01,22.5,13.9,30.1,0.0,,14.0,10.8,31.5,1023.5,
2022-10-02,21.6,12.0,32.3,0.0,,291.0,16.2,42.6,1015.5,
2022-10-03,16.9,12.8,22.0,0.0,,5.0,18.8,42.6,1012.9,
2022-10-04,17.0,13.0,22.3,0.0,,2.0,16.2,33.3,1014.7,
2022-10-05,15.3,11.4,19.0,0.0,,0.0,21.2,46.3,1021.0,
2022-10-06,14.1,10.0,20.0,0.0,,2.0,23.2,46.3,1021.7,
2022-10-07,11.7,10.0,14.8,0.0,,353.0,21.5,38.9,1018.0,
2022-10-08,12.2,9.0,15.0,10.4,10.0,349.0,8.7,22.2,1016.0,
2022-10-09,12.2,10.0,16.0,0.8,,17.0,11.4,27.8,1019.1,
2022-10-10,12.7,8.9,18.0,0.0,,4.0,9.7,24.1,1023.9,
2022-10-11,13.9,6.2,20.0,0.0,,15.0,5.2,16.7,1022.6,
2022-10-12,15.0,7.2,20.5,0.0,,12.0,6.9,25.9,1019.3,
2022-10-13,15.3,10.0,21.0,0.0,,359.0,14.9,29.6,1019.0,
2022-10-14,14.9,8.3,20.5,0.0,,355.0,10.9,22.2,1015.8,
2022-10-15,15.7,11.4,21.0,0.0,,340.0,9.5,22.2,1013.7,
2022-10-16,13.4,11.0,16.0,0.8,,54.0,8.3,29.6,1018.0,
2022-10-17,13.7,11.6,16.0,2.3,,359.0,21.0,44.5,1022.0,
2022-10-18,13.9,11.0,17.0,5.6,,348.0,26.1,42.6,1022.8,
2022-10-19,14.0,8.9,18.0,0.8,,108.0,9.4,24.1,1017.5,
2022-10-20,12.6,9.1,16.0,0.0,,358.0,16.5,42.6,1017.2,
2022-10-21,10.4,8.0,15.0,0.0,,353.0,21.9,40.8,1021.3,
2022-10-22,6.8,2.5,12.0,0.0,,2.0,14.7,31.5,1025.4,
2022-10-23,8.2,-2.0,16.0,0.0,,95.0,7.1,16.7,1024.6,
2022-10-24,11.9,3.9,19.4,0.0,,355.0,8.8,18.5,1023.8,
2022-10-25,10.9,3.2,18.0,0.0,,14.0,6.8,16.7,1021.9,
2022-10-26,11.1,0.6,19.2,0.0,,5.0,7.6,18.5,1021.7,
2022-10-27,12.1,4.0,19.0,0.0,,328.0,9.0,22.2,1024.5,
2022-10-28,10.9,8.0,16.2,0.0,,5.0,18.1,37.0,1025.0,
2022-10-29,9.1,4.4,15.0,0.0,,4.0,18.5,37.0,1023.1,
2022-10-30,9.4,1.3,16.1,0.0,,9.0,8.3,18.5,1020.8,
2022-10-31,9.9,1.2,18.0,0.0,,6.0,6.9,18.5,1019.5,
2022-11-01,10.6,3.0,17.0,0.0,,353.0,12.3,35.2,1021.5,
2022-11-02,9.8,2.2,17.0,0.0,,355.0,8.9,22.2,1021.4,
2022-11-03,10.3,0.8,20.0,0.0,,354.0,7.0,18.5,1021.3,
2022-11-04,10.1,2.9,18.5,0.0,,330.0,4.3,16.7,1020.2,
2022-11-05,10.1,2.1,19.1,0.0,,13.0,4.3,14.8,1020.3,
2022-11-06,10.5,1.5,18.1,0.0,,73.0,6.5,18.5,1018.7,
2022-11-07,10.3,5.8,14.0,4.3,,15.0,7.5,20.4,1014.8,
2022-11-08,10.6,9.0,14.0,0.0,,349.0,18.6,38.9,1017.1,
2022-11-09,9.3,8.0,11.2,0.0,,353.0,17.0,35.2,1019.7,
2022-11-10,7.7,3.2,13.0,0.8,,3.0,14.0,27.8,1022.6,
2022-11-11,7.1,-0.1,14.0,0.0,,352.0,5.1,16.7,1025.3,
2022-11-12,7.2,-0.6,14.0,0.0,,350.0,6.5,16.7,1026.8,
2022-11-13,8.4,2.6,14.0,0.0,,344.0,13.3,27.8,1027.8,
2022-11-14,6.6,0.6,13.0,0.0,,345.0,11.6,22.2,1023.1,
2022-11-15,4.7,-2.0,12.2,0.0,,43.0,5.3,14.8,1019.2,
2022-11-16,6.4,-1.4,15.0,0.0,,175.0,6.7,18.5,1013.7,
2022-11-17,8.6,-1.7,16.7,0.0,,120.0,9.2,25.9,1014.0,
2022-11-18,11.1,6.1,15.1,0.0,,181.0,12.0,29.6,1016.7,
2022-11-19,11.9,5.6,18.2,0.0,,187.0,9.9,27.8,1022.4,
2022-11-20,11.1,4.0,18.2,0.0,,159.0,6.7,20.4,1025.0,
2022-11-21,11.4,6.5,16.6,0.0,,146.0,7.3,24.1,1019.0,
2022-11-22,10.1,6.0,16.0,2.0,,209.0,9.9,25.9,1016.4,
2022-11-23,9.2,0.1,16.5,0.3,,157.0,13.5,33.3,1015.7,
2022-11-24,9.6,7.0,12.0,0.5,,196.0,13.8,31.5,1009.3,
2022-11-25,6.7,3.9,10.0,1.0,,353.0,16.2,38.9,1009.5,
2022-11-26,4.5,1.0,8.0,0.0,,333.0,20.8,38.9,1018.7,
2022-11-27,3.2,-2.0,9.0,0.0,,301.0,6.2,13.0,1021.3,
2022-11-28,1.8,-3.8,6.0,0.0,,88.0,4.9,14.8,1017.6,
2022-11-29,5.8,0.3,13.0,0.0,,340.0,4.9,14.8,1015.7,
2022-11-30,5.9,-0.2,14.0,0.0,,349.0,5.0,14.8,1017.5,
2022-12-01,7.1,1.0,13.0,0.0,,175.0,7.2,22.2,1019.5,
2022-12-02,7.0,0.0,14.4,0.0,,8.0,6.7,14.8,1021.3,
2022-12-03,7.1,0.3,13.0,0.0,,339.0,7.7,20.4,1022.8,
2022-12-04,6.6,1.8,12.0,0.0,,350.0,8.6,20.4,1023.5,
2022-12-05,5.8,1.1,10.2,0.0,,347.0,10.3,16.7,1022.0,
2022-12-06,4.7,1.0,10.0,0.0,,14.0,7.7,14.8,1019.7,
2022-12-07,3.6,-2.8,9.0,0.0,,146.0,4.9,16.7,1018.2,
2022-12-08,4.6,-2.4,12.7,0.0,,28.0,5.9,16.7,1020.9,
2022-12-09,5.0,-1.4,12.5,0.0,,348.0,6.1,14.8,1022.7,
2022-12-10,4.6,-1.7,10.5,0.0,,155.0,4.7,16.7,1020.8,
2022-12-11,7.7,3.1,10.2,1.0,,197.0,7.4,24.1,1015.5,
2022-12-12,7.8,4.6,12.1,0.3,,158.0,10.9,25.9,1012.6,
2022-12-13,9.6,3.4,15.0,0.5,,149.0,10.5,27.8,1012.3,
2022-12-14,8.8,7.0,11.0,1.5,,158.0,7.2,18.5,1013.7,
2022-12-15,10.6,6.0,16.0,2.3,,214.0,9.0,24.1,1018.6,
2022-12-16,8.8,3.0,15.7,0.0,,15.0,6.7,14.8,1023.8,
2022-12-17,5.8,0.9,12.0,0.0,,6.0,4.5,11.1,1025.2,
2022-12-18,5.7,-1.7,15.0,0.0,,352.0,4.0,14.8,1026.8,
2022-12-19,4.9,-1.1,10.0,0.0,,351.0,13.4,33.3,1025.5,
2022-12-20,1.1,0.0,4.9,1.6,,354.0,24.8,40.8,1023.8,
2022-12-21,0.3,-2.2,2.0,0.3,,348.0,12.1,25.9,1021.8,
2022-12-22,0.7,-0.4,2.0,0.0,,158.0,10.3,14.8,1020.2,
2022-12-23,0.6,-0.5,1.0,0.0,,153.0,7.6,16.7,1017.5,
2022-12-24,0.9,-0.4,3.0,0.0,,154.0,7.4,14.8,1016.9,
2022-12-25,2.2,0.3,5.0,0.0,,58.0,10.6,22.2,1018.7,
2022-12-26,3.5,2.0,6.0,1.3,,334.0,21.7,44.5,1023.6,
2022-12-27,1.8,-4.0,8.0,0.0,,189.0,9.7,20.4,1026.4,
2022-12-28,1.9,-4.6,9.1,0.0,,350.0,7.7,14.8,1026.4,
2022-12-29,0.8,-5.4,9.0,0.0,,358.0,5.9,13.0,1027.2,
2022-12-30,-0.2,-5.8,8.0,0.0,,5.0,4.7,13.0,1028.9,
2022-12-31,1.4,-6.3,9.0,0.0,,22.0,6.7,16.7,1029.5,
2023-01-01,0.8,-5.5,8.0,0.0,,0.0,7.8,18.5,1031.0,
2023-01-02,-1.0,-7.3,7.0,0.0,,0.0,5.8,16.7,1031.2,
2023-01-03,-3.2,-8.4,5.1,0.0,,359.0,3.9,16.7,1028.4,
2023-01-04,-3.7,-12.1,5.9,0.0,,11.0,4.1,14.8,1023.6,
2023-01-05,-4.3,-10.5,3.0,0.0,,45.0,3.8,16.7,1021.4,
2023-01-06,0.9,-9.2,9.0,3.4,,12.0,5.3,16.7,1019.7,
2023-01-07,1.9,-0.2,5.7,0.0,,8.0,8.7,16.7,1022.8,
2023-01-08,-2.4,-6.0,0.2,0.0,,66.0,5.6,16.7,1021.8,
2023-01-09,-1.8,-3.0,1.7,0.0,,132.0,6.9,14.8,1022.7,
2023-01-10,-1.9,-8.7,5.3,0.0,,78.0,3.4,16.7,1021.7,
2023-01-11,5.7,-3.4,9.0,0.0,,171.0,21.2,40.8,1018.8,
2023-01-12,4.9,-1.0,8.5,0.0,,179.0,19.6,31.5,1017.2,
2023-01-13,2.2,-4.2,8.0,0.0,,192.0,8.0,14.8,1017.2,
2023-01-14,1.3,-5.2,8.2,0.0,,344.0,4.4,16.7,1017.0,
2023-01-15,1.9,-5.4,8.0,0.0,,14.0,4.5,14.8,1017.9,
2023-01-16,4.2,-0.9,10.0,0.5,,176.0,5.7,16.7,1016.0,
2023-01-17,3.6,-5.0,13.0,0.0,,60.0,8.7,27.8,1019.0,
2023-01-18,6.4,-1.7,14.0,0.0,,209.0,12.4,31.5,1021.2,
2023-01-19,4.1,-3.3,14.0,0.0,,19.0,7.5,14.8,1022.9,
2023-01-20,5.1,-5.2,16.0,0.0,,166.0,9.2,22.2,1018.2,
2023-01-21,3.9,-3.5,12.0,0.0,,203.0,6.8,16.7,1020.4,
2023-01-22,3.9,-4.1,12.0,0.0,,26.0,6.2,16.7,1021.7,
2023-01-23,3.7,-4.1,12.0,0.0,,4.0,6.5,16.7,1023.6,
2023-01-24,3.4,-4.2,11.0,0.0,,353.0,6.4,20.4,1023.7,
2023-01-25,1.1,-3.8,6.0,0.0,,356.0,14.8,27.8,1021.9,
2023-01-26,1.1,-8.0,8.0,0.2,,121.0,5.0,14.8,1020.3,
2023-01-27,5.9,-3.0,15.0,1.0,,156.0,21.0,50.0,1012.6,
2023-01-28,3.7,1.0,9.7,3.3,,332.0,12.2,31.5,1010.8,
2023-01-29,2.5,-1.8,7.0,2.3,,0.0,9.0,20.4,1013.2,
2023-01-30,0.9,-0.6,3.0,0.3,10.0,3.0,13.4,27.8,1010.6,
2023-01-31,-0.4,-2.1,2.0,5.1,89.0,356.0,12.2,38.9,1004.7,
2023-02-01,-1.6,-3.0,-0.5,0.5,10.0,354.0,22.8,40.8,1009.0,
2023-02-02,-2.3,-6.6,2.0,0.0,,161.0,12.1,38.9,1017.5,
2023-02-03,-2.5,-9.6,3.0,0.0,,97.0,6.2,18.5,1020.8,
2023-02-04,-1.2,-5.2,2.0,1.1,,107.0,12.4,24.1,1014.0,
2023-02-05,-1.6,-5.4,2.0,10.1,,37.0,11.6,35.2,1005.5,
2023-02-06,-1.7,-3.0,-0.6,21.8,211.0,337.0,41.8,57.4,1000.9,
2023-02-07,-3.5,-4.0,-2.0,8.9,231.0,335.0,38.3,53.7,1013.8,
2023-02-08,-5.9,-7.0,-3.4,0.0,201.0,322.0,22.5,40.8,1022.6,
2023-02-09,-6.7,-11.4,-2.3,0.0,180.0,29.0,9.6,20.4,1026.8,
2023-02-10,-5.8,-10.5,-2.3,0.0,,339.0,6.4,18.5,1028.4,
2023-02-11,-4.8,-8.0,-2.0,0.0,140.0,8.0,7.6,16.7,1026.3,
2023-02-12,-7.1,-9.0,-4.0,0.0,,137.0,8.0,16.7,1023.9,
2023-02-13,-6.9,-12.0,-2.0,0.0,,35.0,6.5,18.5,1028.3,
2023-02-14,-9.1,-16.0,-3.0,0.0,89.0,70.0,4.5,13.0,1023.8,
2023-02-15,-4.6,-11.2,1.0,0.0,79.0,83.0,9.5,24.1,1021.7,
2023-02-16,-3.3,-6.0,-0.7,0.0,71.0,351.0,12.1,18.5,1027.0,
2023-02-17,-5.7,-11.6,0.0,0.0,61.0,79.0,5.0,14.8,1028.4,
2023-02-18,-2.8,-11.0,3.0,0.0,51.0,29.0,4.1,13.0,1025.8,
2023-02-19,0.4,-6.5,7.0,0.0,41.0,17.0,5.9,14.8,1023.0,
2023-02-20,2.5,-5.0,10.0,0.0,30.0,0.0,11.3,25.9,1019.7,
2023-02-21,1.3,-4.0,7.8,20.1,,41.0,8.0,18.5,1020.3,
2023-02-22,3.3,-4.0,11.0,0.0,,18.0,7.0,14.8,1017.3,
2023-02-23,4.8,-2.7,11.5,0.0,,7.0,9.4,22.2,1016.2,
2023-02-24,5.8,0.0,12.2,0.0,,78.0,6.6,18.5,1017.4,
2023-02-25,6.8,-2.2,14.0,0.0,,184.0,9.2,25.9,1017.2,
2023-02-26,7.4,-2.3,16.0,0.0,,180.0,12.9,35.2,1020.4,
2023-02-27,8.7,0.5,19.0,0.0,,143.0,8.0,22.2,1024.7,
2023-02-28,11.2,3.1,18.0,0.0,,32.0,7.7,16.7,1025.3,
2023-03-01,12.1,4.5,20.0,0.0,,69.0,8.4,18.5,1019.7,
2023-03-02,11.6,1.6,18.0,0.0,,37.0,10.3,22.2,1015.5,
2023-03-03,14.0,6.5,19.0,0.9,,235.0,9.9,27.8,1013.1,
2023-03-04,11.4,3.1,18.0,0.1,,265.0,12.5,27.8,1016.3,
2023-03-05,10.2,3.2,19.2,2.3,,209.0,17.1,35.2,1010.5,
2023-03-06,5.9,1.0,10.0,0.5,,21.0,9.8,25.9,1011.7,
2023-03-07,6.6,-2.0,13.5,0.0,,250.0,9.8,27.8,1015.3,
2023-03-08,8.3,1.1,14.0,0.0,,3.0,8.6,16.7,1015.0,
2023-03-09,9.9,0.5,16.0,0.0,,244.0,10.8,24.1,1014.7,
2023-03-10,11.6,4.7,19.0,0.0,,213.0,15.4,31.5,1014.6,
2023-03-11,11.8,5.8,17.0,0.0,,171.0,23.2,51.8,1010.3,
2023-03-12,9.0,7.0,11.0,0.3,,184.0,16.5,31.5,1006.4,
2023-03-13,3.8,1.7,6.7,7.1,,346.0,21.4,40.8,1009.4,
2023-03-14,4.8,1.0,7.0,7.9,,40.0,12.7,33.3,1011.6,
2023-03-15,7.7,3.0,12.2,0.0,,119.0,10.7,18.5,1008.3,
2023-03-16,7.6,0.3,14.0,0.5,,169.0,11.8,35.2,1008.7,
2023-03-17,6.3,4.8,8.2,7.9,,196.0,9.6,20.4,1010.1,
2023-03-18,5.8,3.3,8.0,5.6,,349.0,20.9,37.0,1011.0,
2023-03-19,5.4,4.6,6.0,0.5,,329.0,26.6,48.2,1009.4,
2023-03-20,7.6,4.5,12.0,3.6,,338.0,26.8,50.0,1014.3,
2023-03-21,8.4,1.9,13.0,0.0,,342.0,13.0,20.4,1014.6,
2023-03-22,7.4,1.9,12.0,0.2,,183.0,6.2,20.4,1012.5,
2023-03-23,9.3,3.0,15.0,0.3,,46.0,9.9,22.2,1013.5,
2023-03-24,8.6,3.0,13.2,2.3,,23.0,9.6,22.2,1015.5,
2023-03-25,9.6,3.5,14.5,0.0,,357.0,11.2,22.2,1012.4,
2023-03-26,10.2,1.4,17.0,0.4,,14.0,9.6,24.1,1010.1,
2023-03-27,11.9,2.9,20.0,1.5,,181.0,13.0,33.3,1011.3,
2023-03-28,10.7,6.0,16.0,0.0,,211.0,23.7,66.7,1007.7,
2023-03-29,2.0,-1.0,8.1,2.3,,314.0,21.2,48.2,1010.0,
2023-03-30,-1.1,-3.3,3.0,0.0,,324.0,24.0,46.3,1018.8,
2023-03-31,2.1,-6.4,8.0,0.3,10.0,48.0,10.3,25.9,1017.8,
2023-04-01,9.4,0.4,17.0,0.0,,217.0,10.8,29.6,1014.9,
2023-04-02,11.8,6.1,16.7,0.2,,217.0,13.7,35.2,1014.4,
2023-04-03,13.2,7.0,21.0,0.0,,170.0,11.8,29.6,1014.1,
2023-04-04,12.3,3.6,21.0,0.3,,170.0,21.6,55.5,1009.2,
2023-04-05,10.2,3.8,17.0,0.3,,253.0,13.7,33.3,1010.0,
2023-04-06,8.7,4.0,14.0,3.3,,46.0,10.6,25.9,1012.1,
2023-04-07,6.9,4.0,12.0,2.0,,199.0,12.0,25.9,1012.7,
2023-04-08,6.8,-0.1,11.0,0.0,,144.0,6.6,20.4,1019.0,
2023-04-09,11.1,5.3,18.0,0.3,,93.0,7.5,24.1,1016.1,
2023-04-10,9.8,6.9,15.0,3.3,,243.0,10.1,31.5,1008.8,
2023-04-11,7.9,5.0,13.0,14.5,,9.0,13.7,24.1,1004.1,
2023-04-12,6.1,3.8,10.0,2.0,,8.0,9.1,25.9,1004.3,
2023-04-13,8.0,3.0,13.0,0.8,,287.0,9.4,25.9,1011.4,
2023-04-14,10.8,0.3,20.0,0.0,,196.0,11.2,29.6,1017.2,
2023-04-15,13.0,2.9,21.0,0.0,,65.0,10.0,22.2,1018.0,
2023-04-16,14.1,6.1,20.0,1.1,,22.0,9.4,22.2,1015.6,
2023-04-17,15.6,7.0,22.4,0.0,,180.0,12.0,33.3,1014.4,
2023-04-18,14.7,5.9,22.0,0.2,,208.0,11.0,33.3,1014.8,
2023-04-19,14.9,6.0,22.0,0.0,,254.0,15.6,42.6,1009.6,
2023-04-20,11.1,4.3,15.8,1.9,,339.0,15.7,35.2,1009.3,
2023-04-21,10.2,5.8,14.0,0.3,,348.0,9.2,22.2,1011.8,
2023-04-22,10.9,4.2,16.0,1.3,,353.0,10.2,22.2,1013.5,
2023-04-23,11.3,7.7,17.0,2.3,,348.0,12.0,29.6,1012.6,
2023-04-24,11.6,6.4,16.0,0.5,,345.0,9.5,24.1,1014.2,
2023-04-25,11.8,3.8,17.0,0.0,,339.0,10.8,25.9,1013.3,
2023-04-26,12.8,4.7,18.2,0.5,,198.0,15.2,38.9,1010.8,
2023-04-27,9.2,7.0,12.4,6.4,10.0,213.0,11.4,33.3,1008.8,
2023-04-28,6.8,4.0,11.2,5.3,,347.0,27.5,46.3,1011.3,
2023-04-29,6.1,2.8,10.9,0.0,,352.0,21.9,38.9,1011.7,
2023-04-30,6.8,0.0,12.0,0.2,,9.0,7.4,24.1,1013.6,
2023-05-01,10.2,0.9,16.5,0.0,,3.0,10.5,22.2,1018.4,
2023-05-02,12.4,4.7,18.0,0.3,,0.0,12.9,24.1,1022.0,
2023-05-03,13.8,1.8,21.0,0.0,,168.0,6.9,20.4,1024.3,
2023-05-04,14.7,6.7,21.0,0.5,,36.0,9.3,20.4,1021.0,
2023-05-05,15.5,7.0,22.0,1.0,,8.0,7.6,29.6,1013.1,
2023-05-06,13.4,6.9,19.1,0.0,,184.0,18.5,40.8,1008.8,
2023-05-07,12.7,6.3,17.0,0.0,,353.0,14.8,33.3,1012.9,
2023-05-08,13.9,9.7,19.0,5.1,,352.0,16.8,33.3,1016.7,
2023-05-09,15.8,8.2,21.0,0.0,,77.0,7.5,20.4,1015.9,
2023-05-10,16.3,11.6,20.0,0.0,,7.0,13.3,27.8,1015.0,
2023-05-11,15.7,11.7,20.1,0.0,,357.0,18.3,29.6,1015.4,
2023-05-12,14.1,10.5,18.0,0.0,,357.0,16.8,27.8,1014.2,
2023-05-13,13.7,10.0,18.3,4.6,,16.0,17.6,33.3,1018.9,
2023-05-14,15.2,7.6,21.2,0.0,,7.0,13.8,33.3,1021.4,
2023-05-15,18.0,10.5,23.0,0.0,,336.0,14.0,31.5,1019.1,
2023-05-16,20.1,11.3,26.1,0.0,,5.0,7.9,24.1,1016.6,
2023-05-17,16.9,11.0,26.0,1.8,,336.0,14.2,37.0,1011.0,
2023-05-18,14.8,8.0,21.2,13.0,,356.0,13.0,37.0,1009.3,
2023-05-19,13.1,9.0,20.0,0.5,,14.0,8.5,25.9,1012.3,
2023-05-20,14.0,10.0,18.4,11.4,,354.0,15.6,35.2,1012.1,
2023-05-21,15.3,10.0,20.0,0.0,,93.0,8.8,20.4,1010.7,
2023-05-22,14.6,9.8,19.9,0.5,,34.0,8.7,25.9,1009.3,
2023-05-23,14.0,9.6,19.0,17.5,20.0,234.0,10.0,27.8,1011.2,
2023-05-24,14.4,7.0,19.0,4.8,,261.0,9.3,22.2,1014.3,
2023-05-25,16.0,8.8,21.0,0.5,,19.0,7.0,22.2,1014.8,
2023-05-26,16.8,10.5,22.0,0.0,,350.0,7.4,20.4,1014.5,
2023-05-27,16.9,9.2,22.0,0.5,,129.0,9.3,24.1,1013.1,
2023-05-28,13.9,9.8,18.0,0.3,,177.0,11.6,37.0,1011.3,
2023-05-29,15.1,9.8,22.0,4.1,,186.0,12.4,31.5,1009.8,
2023-05-30,15.1,11.9,19.4,9.4,,234.0,9.4,33.3,1014.8,
2023-05-31,16.4,11.8,20.1,1.0,,8.0,8.2,22.2,1016.8,
2023-06-01,15.6,11.0,22.0,0.8,,358.0,10.5,22.2,1016.1,
2023-06-02,15.8,9.9,20.0,1.3,,156.0,8.8,27.8,1015.4,
2023-06-03,17.8,10.6,24.0,0.3,,278.0,10.5,31.5,1012.0,
2023-06-04,15.1,12.0,18.4,2.0,,344.0,9.7,27.8,1016.1,
2023-06-05,15.6,13.0,20.2,6.1,,345.0,16.9,42.6,1017.3,
2023-06-06,17.1,13.0,22.0,4.3,,356.0,17.1,35.2,1018.5,
2023-06-07,19.1,13.0,25.0,0.0,,353.0,14.5,31.5,1017.9,
2023-06-08,21.1,14.0,27.0,0.0,,0.0,11.2,22.2,1014.7,
2023-06-09,19.9,13.4,26.0,0.5,,347.0,14.1,25.9,1011.5,
2023-06-10,19.4,12.6,24.0,3.8,,344.0,10.8,27.8,1010.3,
2023-06-11,17.7,14.9,22.0,8.1,10.0,313.0,8.0,29.6,1010.1,
2023-06-12,17.0,15.0,21.0,7.1,,342.0,7.4,24.1,1009.9,
2023-06-13,17.3,13.0,23.0,0.5,,18.0,9.0,25.9,1010.1,
2023-06-14,16.4,13.9,20.4,0.5,,340.0,10.8,33.3,1012.7,
2023-06-15,19.0,14.0,24.0,0.0,,4.0,10.5,25.9,1015.4,
2023-06-16,20.8,13.7,27.3,0.8,,112.0,7.0,33.3,1012.9,
2023-06-17,20.7,14.0,28.0,0.0,,189.0,12.7,38.9,1007.7,
2023-06-18,19.5,13.0,25.0,0.0,,259.0,11.0,25.9,1007.2,
2023-06-19,18.3,14.7,21.5,1.9,,336.0,13.8,31.5,1009.4,
